# Pulseq sequence file
# Created by MATLAB mr toolbox

[VERSION]
major 1
minor 4
revision 1

[DEFINITIONS]
AdcRasterTime 1e-07 
BlockDurationRaster 1e-05 
FOV 0.256 0.256 0.003 
GradientRasterTime 1e-05 
Name gre 
RadiofrequencyRasterTime 1e-06 
SliceGap 0 
SlicePositions 0 
SliceThickness 0.003 
TotalDuration 5.12 

# Format of blocks:
# NUM DUR RF  GX  GY  GZ  ADC  EXT
[BLOCKS]
   1 319   1   0   0   1  0  0
   2 100   0   2   3   4  0  1
   3  81   0   0   0   0  0  0
   4   0   0   0   0   0  0  3
   5 520   0   5   0   0  1  0
   6   0   0   0   0   0  0  5
   7 520   0   6   0   0  1  0
   8 460   0   7   8   9  0  0
   9 319   2   0   0   1  0  0
  10 100   0   2  10   4  0  6
  11  81   0   0   0   0  0  0
  12   0   0   0   0   0  0  3
  13 520   0   5   0   0  2  0
  14   0   0   0   0   0  0  5
  15 520   0   6   0   0  2  0
  16 460   0   7  11   9  0  0
  17 319   3   0   0   1  0  0
  18 100   0   2  12   4  0  7
  19  81   0   0   0   0  0  0
  20   0   0   0   0   0  0  3
  21 520   0   5   0   0  3  0
  22   0   0   0   0   0  0  5
  23 520   0   6   0   0  3  0
  24 460   0   7  13   9  0  0
  25 319   4   0   0   1  0  0
  26 100   0   2  14   4  0  8
  27  81   0   0   0   0  0  0
  28   0   0   0   0   0  0  3
  29 520   0   5   0   0  4  0
  30   0   0   0   0   0  0  5
  31 520   0   6   0   0  4  0
  32 460   0   7  15   9  0  0
  33 319   5   0   0   1  0  0
  34 100   0   2  16   4  0  9
  35  81   0   0   0   0  0  0
  36   0   0   0   0   0  0  3
  37 520   0   5   0   0  5  0
  38   0   0   0   0   0  0  5
  39 520   0   6   0   0  5  0
  40 460   0   7  17   9  0  0
  41 319   1   0   0   1  0  0
  42 100   0   2  18   4  0 10
  43  81   0   0   0   0  0  0
  44   0   0   0   0   0  0  3
  45 520   0   5   0   0  1  0
  46   0   0   0   0   0  0  5
  47 520   0   6   0   0  1  0
  48 460   0   7  19   9  0  0
  49 319   6   0   0   1  0  0
  50 100   0   2  20   4  0 11
  51  81   0   0   0   0  0  0
  52   0   0   0   0   0  0  3
  53 520   0   5   0   0  6  0
  54   0   0   0   0   0  0  5
  55 520   0   6   0   0  6  0
  56 460   0   7  21   9  0  0
  57 319   7   0   0   1  0  0
  58 100   0   2  22   4  0 12
  59  81   0   0   0   0  0  0
  60   0   0   0   0   0  0  3
  61 520   0   5   0   0  7  0
  62   0   0   0   0   0  0  5
  63 520   0   6   0   0  7  0
  64 460   0   7  23   9  0  0
  65 319   8   0   0   1  0  0
  66 100   0   2  24   4  0 13
  67  81   0   0   0   0  0  0
  68   0   0   0   0   0  0  3
  69 520   0   5   0   0  8  0
  70   0   0   0   0   0  0  5
  71 520   0   6   0   0  8  0
  72 460   0   7  25   9  0  0
  73 319   5   0   0   1  0  0
  74 100   0   2  26   4  0 14
  75  81   0   0   0   0  0  0
  76   0   0   0   0   0  0  3
  77 520   0   5   0   0  5  0
  78   0   0   0   0   0  0  5
  79 520   0   6   0   0  5  0
  80 460   0   7  27   9  0  0
  81 319   3   0   0   1  0  0
  82 100   0   2  28   4  0 15
  83  81   0   0   0   0  0  0
  84   0   0   0   0   0  0  3
  85 520   0   5   0   0  3  0
  86   0   0   0   0   0  0  5
  87 520   0   6   0   0  3  0
  88 460   0   7  29   9  0  0
  89 319   9   0   0   1  0  0
  90 100   0   2  30   4  0 16
  91  81   0   0   0   0  0  0
  92   0   0   0   0   0  0  3
  93 520   0   5   0   0  9  0
  94   0   0   0   0   0  0  5
  95 520   0   6   0   0  9  0
  96 460   0   7  31   9  0  0
  97 319  10   0   0   1  0  0
  98 100   0   2  32   4  0 17
  99  81   0   0   0   0  0  0
 100   0   0   0   0   0  0  3
 101 520   0   5   0   0 10  0
 102   0   0   0   0   0  0  5
 103 520   0   6   0   0 10  0
 104 460   0   7  33   9  0  0
 105 319   8   0   0   1  0  0
 106 100   0   2  34   4  0 18
 107  81   0   0   0   0  0  0
 108   0   0   0   0   0  0  3
 109 520   0   5   0   0  8  0
 110   0   0   0   0   0  0  5
 111 520   0   6   0   0  8  0
 112 460   0   7  35   9  0  0
 113 319  11   0   0   1  0  0
 114 100   0   2  36   4  0 19
 115  81   0   0   0   0  0  0
 116   0   0   0   0   0  0  3
 117 520   0   5   0   0 11  0
 118   0   0   0   0   0  0  5
 119 520   0   6   0   0 11  0
 120 460   0   7  37   9  0  0
 121 319   7   0   0   1  0  0
 122 100   0   2  38   4  0 20
 123  81   0   0   0   0  0  0
 124   0   0   0   0   0  0  3
 125 520   0   5   0   0  7  0
 126   0   0   0   0   0  0  5
 127 520   0   6   0   0  7  0
 128 460   0   7  39   9  0  0
 129 319  12   0   0   1  0  0
 130 100   0   2  40   4  0 21
 131  81   0   0   0   0  0  0
 132   0   0   0   0   0  0  3
 133 520   0   5   0   0 12  0
 134   0   0   0   0   0  0  5
 135 520   0   6   0   0 12  0
 136 460   0   7  41   9  0  0
 137 319  10   0   0   1  0  0
 138 100   0   2  42   4  0 22
 139  81   0   0   0   0  0  0
 140   0   0   0   0   0  0  3
 141 520   0   5   0   0 10  0
 142   0   0   0   0   0  0  5
 143 520   0   6   0   0 10  0
 144 460   0   7  43   9  0  0
 145 319   4   0   0   1  0  0
 146 100   0   2  44   4  0 23
 147  81   0   0   0   0  0  0
 148   0   0   0   0   0  0  3
 149 520   0   5   0   0  4  0
 150   0   0   0   0   0  0  5
 151 520   0   6   0   0  4  0
 152 460   0   7  45   9  0  0
 153 319   4   0   0   1  0  0
 154 100   0   2  46   4  0 24
 155  81   0   0   0   0  0  0
 156   0   0   0   0   0  0  3
 157 520   0   5   0   0  4  0
 158   0   0   0   0   0  0  5
 159 520   0   6   0   0  4  0
 160 460   0   7  47   9  0  0
 161 319  10   0   0   1  0  0
 162 100   0   2  48   4  0 25
 163  81   0   0   0   0  0  0
 164   0   0   0   0   0  0  3
 165 520   0   5   0   0 10  0
 166   0   0   0   0   0  0  5
 167 520   0   6   0   0 10  0
 168 460   0   7  49   9  0  0
 169 319  12   0   0   1  0  0
 170 100   0   2  50   4  0 26
 171  81   0   0   0   0  0  0
 172   0   0   0   0   0  0  3
 173 520   0   5   0   0 12  0
 174   0   0   0   0   0  0  5
 175 520   0   6   0   0 12  0
 176 460   0   7  51   9  0  0
 177 319   7   0   0   1  0  0
 178 100   0   2  52   4  0 27
 179  81   0   0   0   0  0  0
 180   0   0   0   0   0  0  3
 181 520   0   5   0   0  7  0
 182   0   0   0   0   0  0  5
 183 520   0   6   0   0  7  0
 184 460   0   7  53   9  0  0
 185 319  11   0   0   1  0  0
 186 100   0   2  54   4  0 28
 187  81   0   0   0   0  0  0
 188   0   0   0   0   0  0  3
 189 520   0   5   0   0 11  0
 190   0   0   0   0   0  0  5
 191 520   0   6   0   0 11  0
 192 460   0   7  55   9  0  0
 193 319   8   0   0   1  0  0
 194 100   0   2  56   4  0 29
 195  81   0   0   0   0  0  0
 196   0   0   0   0   0  0  3
 197 520   0   5   0   0  8  0
 198   0   0   0   0   0  0  5
 199 520   0   6   0   0  8  0
 200 460   0   7  57   9  0  0
 201 319  10   0   0   1  0  0
 202 100   0   2  58   4  0 30
 203  81   0   0   0   0  0  0
 204   0   0   0   0   0  0  3
 205 520   0   5   0   0 10  0
 206   0   0   0   0   0  0  5
 207 520   0   6   0   0 10  0
 208 460   0   7  59   9  0  0
 209 319   9   0   0   1  0  0
 210 100   0   2  60   4  0 31
 211  81   0   0   0   0  0  0
 212   0   0   0   0   0  0  3
 213 520   0   5   0   0  9  0
 214   0   0   0   0   0  0  5
 215 520   0   6   0   0  9  0
 216 460   0   7  61   9  0  0
 217 319   3   0   0   1  0  0
 218 100   0   2  62   4  0 32
 219  81   0   0   0   0  0  0
 220   0   0   0   0   0  0  3
 221 520   0   5   0   0  3  0
 222   0   0   0   0   0  0  5
 223 520   0   6   0   0  3  0
 224 460   0   7  63   9  0  0
 225 319   5   0   0   1  0  0
 226 100   0   2  64   4  0 33
 227  81   0   0   0   0  0  0
 228   0   0   0   0   0  0  3
 229 520   0   5   0   0  5  0
 230   0   0   0   0   0  0  5
 231 520   0   6   0   0  5  0
 232 460   0   7  65   9  0  0
 233 319   8   0   0   1  0  0
 234 100   0   2  66   4  0 34
 235  81   0   0   0   0  0  0
 236   0   0   0   0   0  0  3
 237 520   0   5   0   0  8  0
 238   0   0   0   0   0  0  5
 239 520   0   6   0   0  8  0
 240 460   0   7  67   9  0  0
 241 319   7   0   0   1  0  0
 242 100   0   2  68   4  0 35
 243  81   0   0   0   0  0  0
 244   0   0   0   0   0  0  3
 245 520   0   5   0   0  7  0
 246   0   0   0   0   0  0  5
 247 520   0   6   0   0  7  0
 248 460   0   7  69   9  0  0
 249 319   6   0   0   1  0  0
 250 100   0   2  70   4  0 36
 251  81   0   0   0   0  0  0
 252   0   0   0   0   0  0  3
 253 520   0   5   0   0  6  0
 254   0   0   0   0   0  0  5
 255 520   0   6   0   0  6  0
 256 460   0   7  71   9  0  0
 257 319   1   0   0   1  0  0
 258 100   0   2  72   4  0 37
 259  81   0   0   0   0  0  0
 260   0   0   0   0   0  0  3
 261 520   0   5   0   0  1  0
 262   0   0   0   0   0  0  5
 263 520   0   6   0   0  1  0
 264 460   0   7  73   9  0  0
 265 319   5   0   0   1  0  0
 266 100   0   2  74   4  0 38
 267  81   0   0   0   0  0  0
 268   0   0   0   0   0  0  3
 269 520   0   5   0   0  5  0
 270   0   0   0   0   0  0  5
 271 520   0   6   0   0  5  0
 272 460   0   7  75   9  0  0
 273 319   4   0   0   1  0  0
 274 100   0   2  76   4  0 39
 275  81   0   0   0   0  0  0
 276   0   0   0   0   0  0  3
 277 520   0   5   0   0  4  0
 278   0   0   0   0   0  0  5
 279 520   0   6   0   0  4  0
 280 460   0   7  77   9  0  0
 281 319   3   0   0   1  0  0
 282 100   0   2  78   4  0 40
 283  81   0   0   0   0  0  0
 284   0   0   0   0   0  0  3
 285 520   0   5   0   0  3  0
 286   0   0   0   0   0  0  5
 287 520   0   6   0   0  3  0
 288 460   0   7  79   9  0  0
 289 319   2   0   0   1  0  0
 290 100   0   2  80   4  0 41
 291  81   0   0   0   0  0  0
 292   0   0   0   0   0  0  3
 293 520   0   5   0   0  2  0
 294   0   0   0   0   0  0  5
 295 520   0   6   0   0  2  0
 296 460   0   7  81   9  0  0
 297 319   1   0   0   1  0  0
 298 100   0   2  82   4  0 42
 299  81   0   0   0   0  0  0
 300   0   0   0   0   0  0  3
 301 520   0   5   0   0  1  0
 302   0   0   0   0   0  0  5
 303 520   0   6   0   0  1  0
 304 460   0   7  83   9  0  0
 305 319  11   0   0   1  0  0
 306 100   0   2  84   4  0 43
 307  81   0   0   0   0  0  0
 308   0   0   0   0   0  0  3
 309 520   0   5   0   0 11  0
 310   0   0   0   0   0  0  5
[RF]
1      37.2185 1 2 0 100 0 1.88496
2      37.2185 1 2 0 100 0 3.76991
3      37.2185 1 2 0 100 0 3.45575
4      37.2185 1 2 0 100 0 0.942478
5      37.2185 1 2 0 100 0 2.51327
6      37.2185 1 2 0 100 0 5.34071
7      37.2185 1 2 0 100 0 0.314159
8      37.2185 1 2 0 100 0 5.65487
9      37.2185 1 2 0 100 0 2.19911
10      37.2185 1 2 0 100 0 5.02655
11      37.2185 1 2 0 100 0 4.08407
12      37.2185 1 2 0 100 0 0.628319

# Format of trapezoid gradients:
# id amplitude rise flat fall delay
# ..      Hz/m   us   us   us    us
[TRAP]
 1       444444  90 3000  90  10
 2      -574840 120  760 120   0
 3      -561798 110  780 110   0
 4      -827309 170  660 170   0
 5       195312  40 5120  40   0
 6      -195312  40 5120  40   0
 7       934579 190 1950 190   0
 8       561798 110  780 110   0
 9       932401 190 1240 190   0
10      -557409 110  780 110   0
11       557409 110  780 110   0
12      -553020 110  780 110   0
13       553020 110  780 110   0
14      -548631 110  780 110   0
15       548631 110  780 110   0
16      -544242 110  780 110   0
17       544242 110  780 110   0
18      -539853 110  780 110   0
19       539853 110  780 110   0
20      -535463 110  780 110   0
21       535463 110  780 110   0
22      -531074 110  780 110   0
23       531074 110  780 110   0
24      -526685 110  780 110   0
25       526685 110  780 110   0
26      -522296 110  780 110   0
27       522296 110  780 110   0
28      -517907 110  780 110   0
29       517907 110  780 110   0
30      -513518 110  780 110   0
31       513518 110  780 110   0
32      -509129 110  780 110   0
33       509129 110  780 110   0
34      -504740 110  780 110   0
35       504740 110  780 110   0
36      -500351 110  780 110   0
37       500351 110  780 110   0
38      -495962 110  780 110   0
39       495962 110  780 110   0
40      -491573 110  780 110   0
41       491573 110  780 110   0
42      -487184 110  780 110   0
43       487184 110  780 110   0
44      -482795 110  780 110   0
45       482795 110  780 110   0
46      -478406 110  780 110   0
47       478406 110  780 110   0
48      -474017 110  780 110   0
49       474017 110  780 110   0
50      -469628 110  780 110   0
51       469628 110  780 110   0
52      -465239 110  780 110   0
53       465239 110  780 110   0
54      -460850 110  780 110   0
55       460850 110  780 110   0
56      -456461 110  780 110   0
57       456461 110  780 110   0
58      -452072 110  780 110   0
59       452072 110  780 110   0
60      -447683 110  780 110   0
61       447683 110  780 110   0
62      -443294 110  780 110   0
63       443294 110  780 110   0
64      -438904 110  780 110   0
65       438904 110  780 110   0
66      -434515 110  780 110   0
67       434515 110  780 110   0
68      -430126 110  780 110   0
69       430126 110  780 110   0
70      -425737 110  780 110   0
71       425737 110  780 110   0
72      -421348 110  780 110   0
73       421348 110  780 110   0
74      -416959 110  780 110   0
75       416959 110  780 110   0
76      -412570 110  780 110   0
77       412570 110  780 110   0
78      -408181 110  780 110   0
79       408181 110  780 110   0
80      -403792 110  780 110   0
81       403792 110  780 110   0
82      -399403 110  780 110   0
83       399403 110  780 110   0
84      -395014 110  780 110   0
85       395014 110  780 110   0
86      -390625 110  780 110   0
87       390625 110  780 110   0
88      -386236 110  780 110   0
89       386236 110  780 110   0
90      -381847 110  780 110   0
91       381847 110  780 110   0
92      -377458 110  780 110   0
93       377458 110  780 110   0
94      -373069 110  780 110   0
95       373069 110  780 110   0
96      -368680 110  780 110   0
97       368680 110  780 110   0
98      -364291 110  780 110   0
99       364291 110  780 110   0
100      -359902 110  780 110   0
101       359902 110  780 110   0
102      -355513 110  780 110   0
103       355513 110  780 110   0
104      -351124 110  780 110   0
105       351124 110  780 110   0
106      -346735 110  780 110   0
107       346735 110  780 110   0
108      -342346 110  780 110   0
109       342346 110  780 110   0
110      -337956 110  780 110   0
111       337956 110  780 110   0
112      -333567 110  780 110   0
113       333567 110  780 110   0
114      -329178 110  780 110   0
115       329178 110  780 110   0
116      -324789 110  780 110   0
117       324789 110  780 110   0
118      -320400 110  780 110   0
119       320400 110  780 110   0
120      -316011 110  780 110   0
121       316011 110  780 110   0
122      -311622 110  780 110   0
123       311622 110  780 110   0
124      -307233 110  780 110   0
125       307233 110  780 110   0
126      -302844 110  780 110   0
127       302844 110  780 110   0
128      -298455 110  780 110   0
129       298455 110  780 110   0
130      -294066 110  780 110   0
131       294066 110  780 110   0
132      -289677 110  780 110   0
133       289677 110  780 110   0
134      -285288 110  780 110   0
135       285288 110  780 110   0
136      -280899 110  780 110   0
137       280899 110  780 110   0
138      -276510 110  780 110   0
139       276510 110  780 110   0
140      -272121 110  780 110   0
141       272121 110  780 110   0
142      -267732 110  780 110   0
143       267732 110  780 110   0
144      -263343 110  780 110   0
145       263343 110  780 110   0
146      -258954 110  780 110   0
147       258954 110  780 110   0
148      -254565 110  780 110   0
149       254565 110  780 110   0
150      -250176 110  780 110   0
151       250176 110  780 110   0
152      -245787 110  780 110   0
153       245787 110  780 110   0
154      -241397 110  780 110   0
155       241397 110  780 110   0
156      -237008 110  780 110   0
157       237008 110  780 110   0
158      -232619 110  780 110   0
159       232619 110  780 110   0
160      -228230 110  780 110   0
161       228230 110  780 110   0
162      -223841 110  780 110   0
163       223841 110  780 110   0
164      -219452 110  780 110   0
165       219452 110  780 110   0
166      -215063 110  780 110   0
167       215063 110  780 110   0
168      -210674 110  780 110   0
169       210674 110  780 110   0
170      -206285 110  780 110   0
171       206285 110  780 110   0
172      -201896 110  780 110   0
173       201896 110  780 110   0
174      -197507 110  780 110   0
175       197507 110  780 110   0
176      -193118 110  780 110   0
177       193118 110  780 110   0
178      -188729 110  780 110   0
179       188729 110  780 110   0
180      -184340 110  780 110   0
181       184340 110  780 110   0
182      -179951 110  780 110   0
183       179951 110  780 110   0
184      -175562 110  780 110   0
185       175562 110  780 110   0
186      -171173 110  780 110   0
187       171173 110  780 110   0
188      -166784 110  780 110   0
189       166784 110  780 110   0
190      -162395 110  780 110   0
191       162395 110  780 110   0
192      -158006 110  780 110   0
193       158006 110  780 110   0
194      -153617 110  780 110   0
195       153617 110  780 110   0
196      -149228 110  780 110   0
197       149228 110  780 110   0
198      -144838 110  780 110   0
199       144838 110  780 110   0
200      -140449 110  780 110   0
201       140449 110  780 110   0
202      -136060 110  780 110   0
203       136060 110  780 110   0
204      -131671 110  780 110   0
205       131671 110  780 110   0
206      -127282 110  780 110   0
207       127282 110  780 110   0
208      -122893 110  780 110   0
209       122893 110  780 110   0
210      -118504 110  780 110   0
211       118504 110  780 110   0
212      -114115 110  780 110   0
213       114115 110  780 110   0
214      -109726 110  780 110   0
215       109726 110  780 110   0
216      -105337 110  780 110   0
217       105337 110  780 110   0
218      -100948 110  780 110   0
219       100948 110  780 110   0
220       -96559 110  780 110   0
221        96559 110  780 110   0
222     -92169.9 110  780 110   0
223      92169.9 110  780 110   0
224     -87780.9 110  780 110   0
225      87780.9 110  780 110   0
226     -83391.9 110  780 110   0
227      83391.9 110  780 110   0
228     -79002.8 110  780 110   0
229      79002.8 110  780 110   0
230     -74613.8 110  780 110   0
231      74613.8 110  780 110   0
232     -70224.7 110  780 110   0
233      70224.7 110  780 110   0
234     -65835.7 110  780 110   0
235      65835.7 110  780 110   0
236     -61446.6 110  780 110   0
237      61446.6 110  780 110   0
238     -57057.6 110  780 110   0
239      57057.6 110  780 110   0
240     -52668.5 110  780 110   0
241      52668.5 110  780 110   0
242     -48279.5 110  780 110   0
243      48279.5 110  780 110   0
244     -43890.4 110  780 110   0
245      43890.4 110  780 110   0
246     -39501.4 110  780 110   0
247      39501.4 110  780 110   0
248     -35112.4 110  780 110   0
249      35112.4 110  780 110   0
250     -30723.3 110  780 110   0
251      30723.3 110  780 110   0
252     -26334.3 110  780 110   0
253      26334.3 110  780 110   0
254     -21945.2 110  780 110   0
255      21945.2 110  780 110   0
256     -17556.2 110  780 110   0
257      17556.2 110  780 110   0
258     -13167.1 110  780 110   0
259      13167.1 110  780 110   0
260     -8778.09 110  780 110   0
261      8778.09 110  780 110   0
262     -4389.04 110  780 110   0
263      4389.04 110  780 110   0
264            0 110  780 110   0
265           -0 110  780 110   0

# Format of ADC events:
# id num dwell delay freq phase
# ..  ..    ns    us   Hz   rad
[ADC]
1 256 20000 40 0 1.88496
2 256 20000 40 0 3.76991
3 256 20000 40 0 3.45575
4 256 20000 40 0 0.942478
5 256 20000 40 0 2.51327
6 256 20000 40 0 5.34071
7 256 20000 40 0 0.314159
8 256 20000 40 0 5.65487
9 256 20000 40 0 2.19911
10 256 20000 40 0 5.02655
11 256 20000 40 0 4.08407
12 256 20000 40 0 0.628319

# Format of extension lists:
# id type ref next_id
# next_id of 0 terminates the list
# Extension list is followed by extension specifications
[EXTENSIONS]
1 1 1 0
2 1 2 0
3 1 3 2
4 1 4 0
5 1 5 4
6 1 6 0
7 1 7 0
8 1 8 0
9 1 9 0
10 1 10 0
11 1 11 0
12 1 12 0
13 1 13 0
14 1 14 0
15 1 15 0
16 1 16 0
17 1 17 0
18 1 18 0
19 1 19 0
20 1 20 0
21 1 21 0
22 1 22 0
23 1 23 0
24 1 24 0
25 1 25 0
26 1 26 0
27 1 27 0
28 1 28 0
29 1 29 0
30 1 30 0
31 1 31 0
32 1 32 0
33 1 33 0
34 1 34 0
35 1 35 0
36 1 36 0
37 1 37 0
38 1 38 0
39 1 39 0
40 1 40 0
41 1 41 0
42 1 42 0
43 1 43 0
44 1 44 0
45 1 45 0
46 1 46 0
47 1 47 0
48 1 48 0
49 1 49 0
50 1 50 0
51 1 51 0
52 1 52 0
53 1 53 0
54 1 54 0
55 1 55 0
56 1 56 0
57 1 57 0
58 1 58 0
59 1 59 0
60 1 60 0
61 1 61 0
62 1 62 0
63 1 63 0
64 1 64 0
65 1 65 0
66 1 66 0
67 1 67 0
68 1 68 0
69 1 69 0
70 1 70 0
71 1 71 0
72 1 72 0
73 1 73 0
74 1 74 0
75 1 75 0
76 1 76 0
77 1 77 0
78 1 78 0
79 1 79 0
80 1 80 0
81 1 81 0
82 1 82 0
83 1 83 0
84 1 84 0
85 1 85 0
86 1 86 0
87 1 87 0
88 1 88 0
89 1 89 0
90 1 90 0
91 1 91 0
92 1 92 0
93 1 93 0
94 1 94 0
95 1 95 0
96 1 96 0
97 1 97 0
98 1 98 0
99 1 99 0
100 1 100 0
101 1 101 0
102 1 102 0
103 1 103 0
104 1 104 0
105 1 105 0
106 1 106 0
107 1 107 0
108 1 108 0
109 1 109 0
110 1 110 0
111 1 111 0
112 1 112 0
113 1 113 0
114 1 114 0
115 1 115 0
116 1 116 0
117 1 117 0
118 1 118 0
119 1 119 0
120 1 120 0
121 1 121 0
122 1 122 0
123 1 123 0
124 1 124 0
125 1 125 0
126 1 126 0
127 1 127 0
128 1 128 0
129 1 129 0
130 1 130 0
131 1 131 0
132 1 132 0
133 1 133 0
134 1 134 0
135 1 135 0
136 1 136 0
137 1 137 0
138 1 138 0
139 1 139 0
140 1 140 0
141 1 141 0
142 1 142 0
143 1 143 0
144 1 144 0
145 1 145 0
146 1 146 0
147 1 147 0
148 1 148 0
149 1 149 0
150 1 150 0
151 1 151 0
152 1 152 0
153 1 153 0
154 1 154 0
155 1 155 0
156 1 156 0
157 1 157 0
158 1 158 0
159 1 159 0
160 1 160 0
161 1 161 0
162 1 162 0
163 1 163 0
164 1 164 0
165 1 165 0
166 1 166 0
167 1 167 0
168 1 168 0
169 1 169 0
170 1 170 0
171 1 171 0
172 1 172 0
173 1 173 0
174 1 174 0
175 1 175 0
176 1 176 0
177 1 177 0
178 1 178 0
179 1 179 0
180 1 180 0
181 1 181 0
182 1 182 0
183 1 183 0
184 1 184 0
185 1 185 0
186 1 186 0
187 1 187 0
188 1 188 0
189 1 189 0
190 1 190 0
191 1 191 0
192 1 192 0
193 1 193 0
194 1 194 0
195 1 195 0
196 1 196 0
197 1 197 0
198 1 198 0
199 1 199 0
200 1 200 0
201 1 201 0
202 1 202 0
203 1 203 0
204 1 204 0
205 1 205 0
206 1 206 0
207 1 207 0
208 1 208 0
209 1 209 0
210 1 210 0
211 1 211 0
212 1 212 0
213 1 213 0
214 1 214 0
215 1 215 0
216 1 216 0
217 1 217 0
218 1 218 0
219 1 219 0
220 1 220 0
221 1 221 0
222 1 222 0
223 1 223 0
224 1 224 0
225 1 225 0
226 1 226 0
227 1 227 0
228 1 228 0
229 1 229 0
230 1 230 0
231 1 231 0
232 1 232 0
233 1 233 0
234 1 234 0
235 1 235 0
236 1 236 0
237 1 237 0
238 1 238 0
239 1 239 0
240 1 240 0
241 1 241 0
242 1 242 0
243 1 243 0
244 1 244 0
245 1 245 0
246 1 246 0
247 1 247 0
248 1 248 0
249 1 249 0
250 1 250 0
251 1 251 0
252 1 252 0
253 1 253 0
254 1 254 0
255 1 255 0
256 1 256 0
257 1 257 0
258 1 258 0
259 1 259 0
260 1 260 0

# Extension specification for setting labels:
# id set labelstring
extension LABELSET 1
1 0 LIN
2 0 ECO
3 0 REV
4 1 ECO
5 1 REV
6 1 LIN
7 2 LIN
8 3 LIN
9 4 LIN
10 5 LIN
11 6 LIN
12 7 LIN
13 8 LIN
14 9 LIN
15 10 LIN
16 11 LIN
17 12 LIN
18 13 LIN
19 14 LIN
20 15 LIN
21 16 LIN
22 17 LIN
23 18 LIN
24 19 LIN
25 20 LIN
26 21 LIN
27 22 LIN
28 23 LIN
29 24 LIN
30 25 LIN
31 26 LIN
32 27 LIN
33 28 LIN
34 29 LIN
35 30 LIN
36 31 LIN
37 32 LIN
38 33 LIN
39 34 LIN
40 35 LIN
41 36 LIN
42 37 LIN
43 38 LIN
44 39 LIN
45 40 LIN
46 41 LIN
47 42 LIN
48 43 LIN
49 44 LIN
50 45 LIN
51 46 LIN
52 47 LIN
53 48 LIN
54 49 LIN
55 50 LIN
56 51 LIN
57 52 LIN
58 53 LIN
59 54 LIN
60 55 LIN
61 56 LIN
62 57 LIN
63 58 LIN
64 59 LIN
65 60 LIN
66 61 LIN
67 62 LIN
68 63 LIN
69 64 LIN
70 65 LIN
71 66 LIN
72 67 LIN
73 68 LIN
74 69 LIN
75 70 LIN
76 71 LIN
77 72 LIN
78 73 LIN
79 74 LIN
80 75 LIN
81 76 LIN
82 77 LIN
83 78 LIN
84 79 LIN
85 80 LIN
86 81 LIN
87 82 LIN
88 83 LIN
89 84 LIN
90 85 LIN
91 86 LIN
92 87 LIN
93 88 LIN
94 89 LIN
95 90 LIN
96 91 LIN
97 92 LIN
98 93 LIN
99 94 LIN
100 95 LIN
101 96 LIN
102 97 LIN
103 98 LIN
104 99 LIN
105 100 LIN
106 101 LIN
107 102 LIN
108 103 LIN
109 104 LIN
110 105 LIN
111 106 LIN
112 107 LIN
113 108 LIN
114 109 LIN
115 110 LIN
116 111 LIN
117 112 LIN
118 113 LIN
119 114 LIN
120 115 LIN
121 116 LIN
122 117 LIN
123 118 LIN
124 119 LIN
125 120 LIN
126 121 LIN
127 122 LIN
128 123 LIN
129 124 LIN
130 125 LIN
131 126 LIN
132 127 LIN
133 128 LIN
134 129 LIN
135 130 LIN
136 131 LIN
137 132 LIN
138 133 LIN
139 134 LIN
140 135 LIN
141 136 LIN
142 137 LIN
143 138 LIN
144 139 LIN
145 140 LIN
146 141 LIN
147 142 LIN
148 143 LIN
149 144 LIN
150 145 LIN
151 146 LIN
152 147 LIN
153 148 LIN
154 149 LIN
155 150 LIN
156 151 LIN
157 152 LIN
158 153 LIN
159 154 LIN
160 155 LIN
161 156 LIN
162 157 LIN
163 158 LIN
164 159 LIN
165 160 LIN
166 161 LIN
167 162 LIN
168 163 LIN
169 164 LIN
170 165 LIN
171 166 LIN
172 167 LIN
173 168 LIN
174 169 LIN
175 170 LIN
176 171 LIN
177 172 LIN
178 173 LIN
179 174 LIN
180 175 LIN
181 176 LIN
182 177 LIN
183 178 LIN
184 179 LIN
185 180 LIN
186 181 LIN
187 182 LIN
188 183 LIN
189 184 LIN
190 185 LIN
191 186 LIN
192 187 LIN
193 188 LIN
194 189 LIN
195 190 LIN
196 191 LIN
197 192 LIN
198 193 LIN
199 194 LIN
200 195 LIN
201 196 LIN
202 197 LIN
203 198 LIN
204 199 LIN
205 200 LIN
206 201 LIN
207 202 LIN
208 203 LIN
209 204 LIN
210 205 LIN
211 206 LIN
212 207 LIN
213 208 LIN
214 209 LIN
215 210 LIN
216 211 LIN
217 212 LIN
218 213 LIN
219 214 LIN
220 215 LIN
221 216 LIN
222 217 LIN
223 218 LIN
224 219 LIN
225 220 LIN
226 221 LIN
227 222 LIN
228 223 LIN
229 224 LIN
230 225 LIN
231 226 LIN
232 227 LIN
233 228 LIN
234 229 LIN
235 230 LIN
236 231 LIN
237 232 LIN
238 233 LIN
239 234 LIN
240 235 LIN
241 236 LIN
242 237 LIN
243 238 LIN
244 239 LIN
245 240 LIN
246 241 LIN
247 242 LIN
248 243 LIN
249 244 LIN
250 245 LIN
251 246 LIN
252 247 LIN
253 248 LIN
254 249 LIN
255 250 LIN
256 251 LIN
257 252 LIN
258 253 LIN
259 254 LIN
260 255 LIN

# Sequence Shapes
[SHAPES]

shape_id 1
num_samples 3000
5.33512061e-05
0.000160161335
0.000267116839
0.000374219827
0.000481472412
0.000588876712
0.00069643485
0.000804148955
0.000912021157
0.00102005359
0.0011282484
0.00123660773
0.00134513373
0.00145382854
0.00156269432
0.00167173322
0.00178094741
0.00189033905
0.0019999103
0.00210966333
0.00221960031
0.00232972341
0.00244003479
0.00255053664
0.00266123112
0.00277212042
0.0028832067
0.00299449215
0.00310597893
0.00321766924
0.00332956523
0.0034416691
0.00355398301
0.00366650915
0.00377924967
0.00389220677
0.0040053826
0.00411877934
0.00423239915
0.00434624421
0.00446031667
0.0045746187
0.00468915245
0.00480392009
0.00491892375
0.0050341656
0.00514964778
0.00526537242
0.00538134167
0.00549755767
0.00561402253
0.00573073839
0.00584770736
0.00596493156
0.0060824131
0.00620015408
0.0063181566
0.00643642275
0.00655495462
0.00667375429
0.00679282382
0.0069121653
0.00703178077
0.00715167228
0.00727184189
0.00739229163
0.00751302352
0.00763403959
0.00775534184
0.00787693229
0.00799881293
0.00812098573
0.00824345268
0.00836621575
0.00848927689
0.00861263804
0.00873630115
0.00886026813
0.00898454092
0.0091091214
0.00923401147
0.00935921303
0.00948472792
0.00961055802
0.00973670518
0.00986317122
0.00998995796
0.0101170672
0.0102445008
0.0103722605
0.010500348
0.0106287652
0.0107575137
0.0108865953
0.0110160118
0.0111457647
0.0112758559
0.0114062868
0.0115370594
0.011668175
0.0117996355
0.0119314423
0.0120635972
0.0121961015
0.012328957
0.0124621652
0.0125957275
0.0127296456
0.0128639208
0.0129985546
0.0131335486
0.0132689041
0.0134046226
0.0135407055
0.013677154
0.0138139698
0.0139511539
0.0140887078
0.0142266329
0.0143649302
0.0145036012
0.0146426471
0.0147820691
0.0149218683
0.0150620461
0.0152026035
0.0153435416
0.0154848617
0.0156265647
0.0157686518
0.015911124
0.0160539824
0.0161972279
0.0163408615
0.0164848842
0.016629297
0.0167741007
0.0169192962
0.0170648843
0.0172108661
0.0173572421
0.0175040133
0.0176511804
0.0177987441
0.0179467052
0.0180950644
0.0182438222
0.0183929794
0.0185425366
0.0186924943
0.0188428531
0.0189936136
0.0191447761
0.0192963414
0.0194483097
0.0196006814
0.0197534571
0.019906637
0.0200602216
0.020214211
0.0203686056
0.0205234057
0.0206786114
0.020834223
0.0209902406
0.0211466644
0.0213034945
0.0214607308
0.0216183736
0.0217764228
0.0219348784
0.0220937403
0.0222530084
0.0224126827
0.0225727631
0.0227332492
0.022894141
0.0230554382
0.0232171406
0.0233792478
0.0235417594
0.0237046752
0.0238679948
0.0240317176
0.0241958433
0.0243603714
0.0245253012
0.0246906323
0.0248563641
0.0250224958
0.0251890269
0.0253559566
0.0255232843
0.025691009
0.0258591301
0.0260276467
0.0261965579
0.0263658627
0.0265355603
0.0267056496
0.0268761297
0.0270469995
0.0272182578
0.0273899036
0.0275619356
0.0277343527
0.0279071537
0.0280803372
0.028253902
0.0284278466
0.0286021697
0.0287768699
0.0289519457
0.0291273956
0.029303218
0.0294794114
0.0296559741
0.0298329045
0.0300102009
0.0301878615
0.0303658846
0.0305442683
0.0307230109
0.0309021103
0.0310815647
0.0312613721
0.0314415304
0.0316220377
0.0318028918
0.0319840905
0.0321656318
0.0323475134
0.032529733
0.0327122883
0.032895177
0.0330783967
0.033261945
0.0334458194
0.0336300174
0.0338145364
0.033999374
0.0341845274
0.0343699939
0.0345557709
0.0347418555
0.0349282451
0.0351149367
0.0353019274
0.0354892144
0.0356767946
0.035864665
0.0360528226
0.0362412643
0.036429987
0.0366189873
0.0368082622
0.0369978083
0.0371876223
0.0373777009
0.0375680406
0.037758638
0.0379494896
0.0381405919
0.0383319412
0.038523534
0.0387153666
0.0389074352
0.0390997361
0.0392922655
0.0394850196
0.0396779943
0.0398711859
0.0400645904
0.0402582036
0.0404520215
0.04064604
0.0408402549
0.0410346621
0.0412292572
0.041424036
0.0416189941
0.0418141271
0.0420094306
0.0422049002
0.0424005311
0.042596319
0.0427922591
0.0429883469
0.0431845775
0.0433809463
0.0435774484
0.043774079
0.0439708332
0.044167706
0.0443646925
0.0445617876
0.0447589862
0.0449562833
0.0451536736
0.0453511519
0.0455487129
0.0457463514
0.045944062
0.0461418393
0.0463396777
0.0465375719
