# Pulseq sequence file
# Created by MATLAB mr toolbox

[VERSION]
major 1
minor 4
revision 1

[DEFINITIONS]
AdcRasterTime 1e-07 
BlockDurationRaster 1e-05 
FOV 0.256 0.256 0.003 
GradientRasterTime 1e-05 
Name gre 
RadiofrequencyRasterTime 1e-06 
SliceGap 0 
SlicePositions 0 
SliceThickness 0.003 
TotalDuration 3.1872 

# Format of blocks:
# NUM DUR RF  GX  GY  GZ  ADC  EXT
[BLOCKS]
   1 319   2   0   0 516  0  0
   2 100   0   1   4 517  0  1
   3  81   0   0   0   0  0  0
   4 745   0   2   5   3  1  0
   5 319   3   0   0 516  0  0
   6 100   0   1   6 517  0  2
   7  81   0   0   0   0  0  0
   8 745   0   2   7   3  2  0
   9 319   4   0   0 516  0  0
  10 100   0   1   8 517  0  3
  11  81   0   0   0   0  0  0
  12 745   0   2   9   3  3  0
  13 319   5   0   0 516  0  0
  14 100   0   1  10 517  0  4
  15  81   0   0   0   0  0  0
  16 745   0   2  11   3  4  0
  17 319   6   0   0 516  0  0
  18 100   0   1  12 517  0  5
  19  81   0   0   0   0  0  0
  20 745   0   2  13   3  5  0
  21 319   2   0   0 516  0  0
  22 100   0   1  14 517  0  6
  23  81   0   0   0   0  0  0
  24 745   0   2  15   3  1  0
  25 319   7   0   0 516  0  0
  26 100   0   1  16 517  0  7
  27  81   0   0   0   0  0  0
  28 745   0   2  17   3  6  0
  29 319   8   0   0 516  0  0
  30 100   0   1  18 517  0  8
  31  81   0   0   0   0  0  0
  32 745   0   2  19   3  7  0
  33 319   9   0   0 516  0  0
  34 100   0   1  20 517  0  9
  35  81   0   0   0   0  0  0
  36 745   0   2  21   3  8  0
  37 319   6   0   0 516  0  0
  38 100   0   1  22 517  0 10
  39  81   0   0   0   0  0  0
  40 745   0   2  23   3  5  0
  41 319   4   0   0 516  0  0
  42 100   0   1  24 517  0 11
  43  81   0   0   0   0  0  0
  44 745   0   2  25   3  3  0
  45 319  10   0   0 516  0  0
  46 100   0   1  26 517  0 12
  47  81   0   0   0   0  0  0
  48 745   0   2  27   3  9  0
  49 319  11   0   0 516  0  0
  50 100   0   1  28 517  0 13
  51  81   0   0   0   0  0  0
  52 745   0   2  29   3 10  0
  53 319   9   0   0 516  0  0
  54 100   0   1  30 517  0 14
  55  81   0   0   0   0  0  0
  56 745   0   2  31   3  8  0
  57 319  12   0   0 516  0  0
  58 100   0   1  32 517  0 15
  59  81   0   0   0   0  0  0
  60 745   0   2  33   3 11  0
  61 319   8   0   0 516  0  0
  62 100   0   1  34 517  0 16
  63  81   0   0   0   0  0  0
  64 745   0   2  35   3  7  0
  65 319  13   0   0 516  0  0
  66 100   0   1  36 517  0 17
  67  81   0   0   0   0  0  0
  68 745   0   2  37   3 12  0
  69 319  11   0   0 516  0  0
  70 100   0   1  38 517  0 18
  71  81   0   0   0   0  0  0
  72 745   0   2  39   3 10  0
  73 319   5   0   0 516  0  0
  74 100   0   1  40 517  0 19
  75  81   0   0   0   0  0  0
  76 745   0   2  41   3  4  0
  77 319   5   0   0 516  0  0
  78 100   0   1  42 517  0 20
  79  81   0   0   0   0  0  0
  80 745   0   2  43   3  4  0
  81 319  11   0   0 516  0  0
  82 100   0   1  44 517  0 21
  83  81   0   0   0   0  0  0
  84 745   0   2  45   3 10  0
  85 319  13   0   0 516  0  0
  86 100   0   1  46 517  0 22
  87  81   0   0   0   0  0  0
  88 745   0   2  47   3 12  0
  89 319   8   0   0 516  0  0
  90 100   0   1  48 517  0 23
  91  81   0   0   0   0  0  0
  92 745   0   2  49   3  7  0
  93 319  12   0   0 516  0  0
  94 100   0   1  50 517  0 24
  95  81   0   0   0   0  0  0
  96 745   0   2  51   3 11  0
  97 319   9   0   0 516  0  0
  98 100   0   1  52 517  0 25
  99  81   0   0   0   0  0  0
 100 745   0   2  53   3  8  0
 101 319  11   0   0 516  0  0
 102 100   0   1  54 517  0 26
 103  81   0   0   0   0  0  0
 104 745   0   2  55   3 10  0
 105 319  10   0   0 516  0  0
 106 100   0   1  56 517  0 27
 107  81   0   0   0   0  0  0
 108 745   0   2  57   3  9  0
 109 319   4   0   0 516  0  0
 110 100   0   1  58 517  0 28
 111  81   0   0   0   0  0  0
 112 745   0   2  59   3  3  0
 113 319   6   0   0 516  0  0
 114 100   0   1  60 517  0 29
 115  81   0   0   0   0  0  0
 116 745   0   2  61   3  5  0
 117 319   9   0   0 516  0  0
 118 100   0   1  62 517  0 30
 119  81   0   0   0   0  0  0
 120 745   0   2  63   3  8  0
 121 319   8   0   0 516  0  0
 122 100   0   1  64 517  0 31
 123  81   0   0   0   0  0  0
 124 745   0   2  65   3  7  0
 125 319   7   0   0 516  0  0
 126 100   0   1  66 517  0 32
 127  81   0   0   0   0  0  0
 128 745   0   2  67   3  6  0
 129 319   2   0   0 516  0  0
 130 100   0   1  68 517  0 33
 131  81   0   0   0   0  0  0
 132 745   0   2  69   3  1  0
 133 319   6   0   0 516  0  0
 134 100   0   1  70 517  0 34
 135  81   0   0   0   0  0  0
 136 745   0   2  71   3  5  0
 137 319   5   0   0 516  0  0
 138 100   0   1  72 517  0 35
 139  81   0   0   0   0  0  0
 140 745   0   2  73   3  4  0
 141 319   4   0   0 516  0  0
 142 100   0   1  74 517  0 36
 143  81   0   0   0   0  0  0
 144 745   0   2  75   3  3  0
 145 319   3   0   0 516  0  0
 146 100   0   1  76 517  0 37
 147  81   0   0   0   0  0  0
 148 745   0   2  77   3  2  0
 149 319   2   0   0 516  0  0
 150 100   0   1  78 517  0 38
 151  81   0   0   0   0  0  0
 152 745   0   2  79   3  1  0
 153 319  12   0   0 516  0  0
 154 100   0   1  80 517  0 39
 155  81   0   0   0   0  0  0
 156 745   0   2  81   3 11  0
 157 319  12   0   0 516  0  0
 158 100   0   1  82 517  0 40
 159  81   0   0   0   0  0  0
 160 745   0   2  83   3 11  0
 161 319   2   0   0 516  0  0
 162 100   0   1  84 517  0 41
 163  81   0   0   0   0  0  0
 164 745   0   2  85   3  1  0
 165 319   3   0   0 516  0  0
 166 100   0   1  86 517  0 42
 167  81   0   0   0   0  0  0
 168 745   0   2  87   3  2  0
 169 319   4   0   0 516  0  0
 170 100   0   1  88 517  0 43
 171  81   0   0   0   0  0  0
 172 745   0   2  89   3  3  0
 173 319   5   0   0 516  0  0
 174 100   0   1  90 517  0 44
 175  81   0   0   0   0  0  0
 176 745   0   2  91   3  4  0
 177 319   6   0   0 516  0  0
 178 100   0   1  92 517  0 45
 179  81   0   0   0   0  0  0
 180 745   0   2  93   3  5  0
 181 319   2   0   0 516  0  0
 182 100   0   1  94 517  0 46
 183  81   0   0   0   0  0  0
 184 745   0   2  95   3  1  0
 185 319   7   0   0 516  0  0
 186 100   0   1  96 517  0 47
 187  81   0   0   0   0  0  0
 188 745   0   2  97   3  6  0
 189 319   8   0   0 516  0  0
 190 100   0   1  98 517  0 48
 191  81   0   0   0   0  0  0
 192 745   0   2  99   3  7  0
 193 319   9   0   0 516  0  0
 194 100   0   1 100 517  0 49
 195  81   0   0   0   0  0  0
 196 745   0   2 101   3  8  0
 197 319   6   0   0 516  0  0
 198 100   0   1 102 517  0 50
 199  81   0   0   0   0  0  0
 200 745   0   2 103   3  5  0
 201 319   4   0   0 516  0  0
 202 100   0   1 104 517  0 51
 203  81   0   0   0   0  0  0
 204 745   0   2 105   3  3  0
 205 319  10   0   0 516  0  0
 206 100   0   1 106 517  0 52
 207  81   0   0   0   0  0  0
 208 745   0   2 107   3  9  0
 209 319  11   0   0 516  0  0
 210 100   0   1 108 517  0 53
 211  81   0   0   0   0  0  0
 212 745   0   2 109   3 10  0
 213 319   9   0   0 516  0  0
 214 100   0   1 110 517  0 54
 215  81   0   0   0   0  0  0
 216 745   0   2 111   3  8  0
 217 319  12   0   0 516  0  0
 218 100   0   1 112 517  0 55
 219  81   0   0   0   0  0  0
 220 745   0   2 113   3 11  0
 221 319   8   0   0 516  0  0
 222 100   0   1 114 517  0 56
 223  81   0   0   0   0  0  0
 224 745   0   2 115   3  7  0
 225 319  13   0   0 516  0  0
 226 100   0   1 116 517  0 57
 227  81   0   0   0   0  0  0
 228 745   0   2 117   3 12  0
 229 319  11   0   0 516  0  0
 230 100   0   1 118 517  0 58
 231  81   0   0   0   0  0  0
 232 745   0   2 119   3 10  0
 233 319   5   0   0 516  0  0
 234 100   0   1 120 517  0 59
 235  81   0   0   0   0  0  0
 236 745   0   2 121   3  4  0
 237 319   5   0   0 516  0  0
 238 100   0   1 122 517  0 60
 239  81   0   0   0   0  0  0
 240 745   0   2 123   3  4  0
 241 319  11   0   0 516  0  0
 242 100   0   1 124 517  0 61
 243  81   0   0   0   0  0  0
 244 745   0   2 125   3 10  0
 245 319  13   0   0 516  0  0
 246 100   0   1 126 517  0 62
 247  81   0   0   0   0  0  0
 248 745   0   2 127   3 12  0
 249 319   8   0   0 516  0  0
 250 100   0   1 128 517  0 63
 251  81   0   0   0   0  0  0
 252 745   0   2 129   3  7  0
 253 319  12   0   0 516  0  0
 254 100   0   1 130 517  0 64
 255  81   0   0   0   0  0  0
 256 745   0   2 131   3 11  0
 257 319   9   0   0 516  0  0
 258 100   0   1 132 517  0 65
 259  81   0   0   0   0  0  0
 260 745   0   2 133   3  8  0
 261 319  11   0   0 516  0  0
 262 100   0   1 134 517  0 66
 263  81   0   0   0   0  0  0
 264 745   0   2 135   3 10  0
 265 319  10   0   0 516  0  0
 266 100   0   1 136 517  0 67
 267  81   0   0   0   0  0  0
 268 745   0   2 137   3  9  0
 269 319   4   0   0 516  0  0
 270 100   0   1 138 517  0 68
 271  81   0   0   0   0  0  0
 272 745   0   2 139   3  3  0
 273 319   6   0   0 516  0  0
 274 100   0   1 140 517  0 69
 275  81   0   0   0   0  0  0
 276 745   0   2 141   3  5  0
 277 319   9   0   0 516  0  0
 278 100   0   1 142 517  0 70
 279  81   0   0   0   0  0  0
 280 745   0   2 143   3  8  0
 281 319   8   0   0 516  0  0
 282 100   0   1 144 517  0 71
 283  81   0   0   0   0  0  0
 284 745   0   2 145   3  7  0
 285 319   7   0   0 516  0  0
 286 100   0   1 146 517  0 72
 287  81   0   0   0   0  0  0
 288 745   0   2 147   3  6  0
 289 319   2   0   0 516  0  0
 290 100   0   1 148 517  0 73
 291  81   0   0   0   0  0  0
 292 745   0   2 149   3  1  0
 293 319   6   0   0 516  0  0
 294 100   0   1 150 517  0 74
 295  81   0   0   0   0  0  0
 296 745   0   2 151   3  5  0
 297 319   5   0   0 516  0  0
 298 100   0   1 152 517  0 75
 299  81   0   0   0   0  0  0
 300 745   0   2 153   3  4  0
 301 319   4   0   0 516  0  0
 302 100   0   1 154 517  0 76
 303  81   0   0   0   0  0  0
 304 745   0   2 155   3  3  0
 305 319   3   0   0 516  0  0
 306 100   0   1 156 517  0 77
 307  81   0   0   0   0  0  0
 308 745   0   2 157   3  2  0
 309 319   2   0   0 516  0  0
 310 100   0   1 158 517  0 78
[RF]
1      37.2185 3 4 0 100 0 0
2      37.2185 3 4 0 100 0 1.88496
3      37.2185 3 4 0 100 0 3.76991
4      37.2185 3 4 0 100 0 3.45575
5      37.2185 3 4 0 100 0 0.942478
6      37.2185 3 4 0 100 0 2.51327
7      37.2185 3 4 0 100 0 5.34071
8      37.2185 3 4 0 100 0 0.314159
9      37.2185 3 4 0 100 0 5.65487
10      37.2185 3 4 0 100 0 2.19911
11      37.2185 3 4 0 100 0 5.02655
12      37.2185 3 4 0 100 0 4.08407
13      37.2185 3 4 0 100 0 0.628319

# Format of arbitrary gradients:
#   time_shape_id of 0 means default timing (stepping with grad_raster starting at 1/2 of grad_raster)
# id amplitude amp_shape_id time_shape_id delay
# ..      Hz/m       ..         ..          us
[GRADIENTS]
2       936487 1 2 0

# Format of trapezoid gradients:
# id amplitude rise flat fall delay
# ..      Hz/m   us   us   us    us
[TRAP]
 1      -574840 120  760 120   0
 3       932401 190 1240 190 5160
 4      -561798 110  780 110   0
 5       561798 110  780 110 5160
 6      -557409 110  780 110   0
 7       557409 110  780 110 5160
 8      -553020 110  780 110   0
 9       553020 110  780 110 5160
10      -548631 110  780 110   0
11       548631 110  780 110 5160
12      -544242 110  780 110   0
13       544242 110  780 110 5160
14      -539853 110  780 110   0
15       539853 110  780 110 5160
16      -535463 110  780 110   0
17       535463 110  780 110 5160
18      -531074 110  780 110   0
19       531074 110  780 110 5160
20      -526685 110  780 110   0
21       526685 110  780 110 5160
22      -522296 110  780 110   0
23       522296 110  780 110 5160
24      -517907 110  780 110   0
25       517907 110  780 110 5160
26      -513518 110  780 110   0
27       513518 110  780 110 5160
28      -509129 110  780 110   0
29       509129 110  780 110 5160
30      -504740 110  780 110   0
31       504740 110  780 110 5160
32      -500351 110  780 110   0
33       500351 110  780 110 5160
34      -495962 110  780 110   0
35       495962 110  780 110 5160
36      -491573 110  780 110   0
37       491573 110  780 110 5160
38      -487184 110  780 110   0
39       487184 110  780 110 5160
40      -482795 110  780 110   0
41       482795 110  780 110 5160
42      -478406 110  780 110   0
43       478406 110  780 110 5160
44      -474017 110  780 110   0
45       474017 110  780 110 5160
46      -469628 110  780 110   0
47       469628 110  780 110 5160
48      -465239 110  780 110   0
49       465239 110  780 110 5160
50      -460850 110  780 110   0
51       460850 110  780 110 5160
52      -456461 110  780 110   0
53       456461 110  780 110 5160
54      -452072 110  780 110   0
55       452072 110  780 110 5160
56      -447683 110  780 110   0
57       447683 110  780 110 5160
58      -443294 110  780 110   0
59       443294 110  780 110 5160
60      -438904 110  780 110   0
61       438904 110  780 110 5160
62      -434515 110  780 110   0
63       434515 110  780 110 5160
64      -430126 110  780 110   0
65       430126 110  780 110 5160
66      -425737 110  780 110   0
67       425737 110  780 110 5160
68      -421348 110  780 110   0
69       421348 110  780 110 5160
70      -416959 110  780 110   0
71       416959 110  780 110 5160
72      -412570 110  780 110   0
73       412570 110  780 110 5160
74      -408181 110  780 110   0
75       408181 110  780 110 5160
76      -403792 110  780 110   0
77       403792 110  780 110 5160
78      -399403 110  780 110   0
79       399403 110  780 110 5160
80      -395014 110  780 110   0
81       395014 110  780 110 5160
82      -390625 110  780 110   0
83       390625 110  780 110 5160
84      -386236 110  780 110   0
85       386236 110  780 110 5160
86      -381847 110  780 110   0
87       381847 110  780 110 5160
88      -377458 110  780 110   0
89       377458 110  780 110 5160
90      -373069 110  780 110   0
91       373069 110  780 110 5160
92      -368680 110  780 110   0
93       368680 110  780 110 5160
94      -364291 110  780 110   0
95       364291 110  780 110 5160
96      -359902 110  780 110   0
97       359902 110  780 110 5160
98      -355513 110  780 110   0
99       355513 110  780 110 5160
100      -351124 110  780 110   0
101       351124 110  780 110 5160
102      -346735 110  780 110   0
103       346735 110  780 110 5160
104      -342346 110  780 110   0
105       342346 110  780 110 5160
106      -337956 110  780 110   0
107       337956 110  780 110 5160
108      -333567 110  780 110   0
109       333567 110  780 110 5160
110      -329178 110  780 110   0
111       329178 110  780 110 5160
112      -324789 110  780 110   0
113       324789 110  780 110 5160
114      -320400 110  780 110   0
115       320400 110  780 110 5160
116      -316011 110  780 110   0
117       316011 110  780 110 5160
118      -311622 110  780 110   0
119       311622 110  780 110 5160
120      -307233 110  780 110   0
121       307233 110  780 110 5160
122      -302844 110  780 110   0
123       302844 110  780 110 5160
124      -298455 110  780 110   0
125       298455 110  780 110 5160
126      -294066 110  780 110   0
127       294066 110  780 110 5160
128      -289677 110  780 110   0
129       289677 110  780 110 5160
130      -285288 110  780 110   0
131       285288 110  780 110 5160
132      -280899 110  780 110   0
133       280899 110  780 110 5160
134      -276510 110  780 110   0
135       276510 110  780 110 5160
136      -272121 110  780 110   0
137       272121 110  780 110 5160
138      -267732 110  780 110   0
139       267732 110  780 110 5160
140      -263343 110  780 110   0
141       263343 110  780 110 5160
142      -258954 110  780 110   0
143       258954 110  780 110 5160
144      -254565 110  780 110   0
145       254565 110  780 110 5160
146      -250176 110  780 110   0
147       250176 110  780 110 5160
148      -245787 110  780 110   0
149       245787 110  780 110 5160
150      -241397 110  780 110   0
151       241397 110  780 110 5160
152      -237008 110  780 110   0
153       237008 110  780 110 5160
154      -232619 110  780 110   0
155       232619 110  780 110 5160
156      -228230 110  780 110   0
157       228230 110  780 110 5160
158      -223841 110  780 110   0
159       223841 110  780 110 5160
160      -219452 110  780 110   0
161       219452 110  780 110 5160
162      -215063 110  780 110   0
163       215063 110  780 110 5160
164      -210674 110  780 110   0
165       210674 110  780 110 5160
166      -206285 110  780 110   0
167       206285 110  780 110 5160
168      -201896 110  780 110   0
169       201896 110  780 110 5160
170      -197507 110  780 110   0
171       197507 110  780 110 5160
172      -193118 110  780 110   0
173       193118 110  780 110 5160
174      -188729 110  780 110   0
175       188729 110  780 110 5160
176      -184340 110  780 110   0
177       184340 110  780 110 5160
178      -179951 110  780 110   0
179       179951 110  780 110 5160
180      -175562 110  780 110   0
181       175562 110  780 110 5160
182      -171173 110  780 110   0
183       171173 110  780 110 5160
184      -166784 110  780 110   0
185       166784 110  780 110 5160
186      -162395 110  780 110   0
187       162395 110  780 110 5160
188      -158006 110  780 110   0
189       158006 110  780 110 5160
190      -153617 110  780 110   0
191       153617 110  780 110 5160
192      -149228 110  780 110   0
193       149228 110  780 110 5160
194      -144838 110  780 110   0
195       144838 110  780 110 5160
196      -140449 110  780 110   0
197       140449 110  780 110 5160
198      -136060 110  780 110   0
199       136060 110  780 110 5160
200      -131671 110  780 110   0
201       131671 110  780 110 5160
202      -127282 110  780 110   0
203       127282 110  780 110 5160
204      -122893 110  780 110   0
205       122893 110  780 110 5160
206      -118504 110  780 110   0
207       118504 110  780 110 5160
208      -114115 110  780 110   0
209       114115 110  780 110 5160
210      -109726 110  780 110   0
211       109726 110  780 110 5160
212      -105337 110  780 110   0
213       105337 110  780 110 5160
214      -100948 110  780 110   0
215       100948 110  780 110 5160
216       -96559 110  780 110   0
217        96559 110  780 110 5160
218     -92169.9 110  780 110   0
219      92169.9 110  780 110 5160
220     -87780.9 110  780 110   0
221      87780.9 110  780 110 5160
222     -83391.9 110  780 110   0
223      83391.9 110  780 110 5160
224     -79002.8 110  780 110   0
225      79002.8 110  780 110 5160
226     -74613.8 110  780 110   0
227      74613.8 110  780 110 5160
228     -70224.7 110  780 110   0
229      70224.7 110  780 110 5160
230     -65835.7 110  780 110   0
231      65835.7 110  780 110 5160
232     -61446.6 110  780 110   0
233      61446.6 110  780 110 5160
234     -57057.6 110  780 110   0
235      57057.6 110  780 110 5160
236     -52668.5 110  780 110   0
237      52668.5 110  780 110 5160
238     -48279.5 110  780 110   0
239      48279.5 110  780 110 5160
240     -43890.4 110  780 110   0
241      43890.4 110  780 110 5160
242     -39501.4 110  780 110   0
243      39501.4 110  780 110 5160
244     -35112.4 110  780 110   0
245      35112.4 110  780 110 5160
246     -30723.3 110  780 110   0
247      30723.3 110  780 110 5160
248     -26334.3 110  780 110   0
249      26334.3 110  780 110 5160
250     -21945.2 110  780 110   0
251      21945.2 110  780 110 5160
252     -17556.2 110  780 110   0
253      17556.2 110  780 110 5160
254     -13167.1 110  780 110   0
255      13167.1 110  780 110 5160
256     -8778.09 110  780 110   0
257      8778.09 110  780 110 5160
258     -4389.04 110  780 110   0
259      4389.04 110  780 110 5160
260            0 110  780 110   0
261           -0 110  780 110 5160
262      4389.04 110  780 110   0
263     -4389.04 110  780 110 5160
264      8778.09 110  780 110   0
265     -8778.09 110  780 110 5160
266      13167.1 110  780 110   0
267     -13167.1 110  780 110 5160
268      17556.2 110  780 110   0
269     -17556.2 110  780 110 5160
270      21945.2 110  780 110   0
271     -21945.2 110  780 110 5160
272      26334.3 110  780 110   0
273     -26334.3 110  780 110 5160
274      30723.3 110  780 110   0
275     -30723.3 110  780 110 5160
276      35112.4 110  780 110   0
277     -35112.4 110  780 110 5160
278      39501.4 110  780 110   0
279     -39501.4 110  780 110 5160
280      43890.4 110  780 110   0
281     -43890.4 110  780 110 5160
282      48279.5 110  780 110   0
283     -48279.5 110  780 110 5160
284      52668.5 110  780 110   0
285     -52668.5 110  780 110 5160
286      57057.6 110  780 110   0
287     -57057.6 110  780 110 5160
288      61446.6 110  780 110   0
289     -61446.6 110  780 110 5160
290      65835.7 110  780 110   0
291     -65835.7 110  780 110 5160
292      70224.7 110  780 110   0
293     -70224.7 110  780 110 5160
294      74613.8 110  780 110   0
295     -74613.8 110  780 110 5160
296      79002.8 110  780 110   0
297     -79002.8 110  780 110 5160
298      83391.9 110  780 110   0
299     -83391.9 110  780 110 5160
300      87780.9 110  780 110   0
301     -87780.9 110  780 110 5160
302      92169.9 110  780 110   0
303     -92169.9 110  780 110 5160
304        96559 110  780 110   0
305       -96559 110  780 110 5160
306       100948 110  780 110   0
307      -100948 110  780 110 5160
308       105337 110  780 110   0
309      -105337 110  780 110 5160
310       109726 110  780 110   0
311      -109726 110  780 110 5160
312       114115 110  780 110   0
313      -114115 110  780 110 5160
314       118504 110  780 110   0
315      -118504 110  780 110 5160
316       122893 110  780 110   0
317      -122893 110  780 110 5160
318       127282 110  780 110   0
319      -127282 110  780 110 5160
320       131671 110  780 110   0
321      -131671 110  780 110 5160
322       136060 110  780 110   0
323      -136060 110  780 110 5160
324       140449 110  780 110   0
325      -140449 110  780 110 5160
326       144838 110  780 110   0
327      -144838 110  780 110 5160
328       149228 110  780 110   0
329      -149228 110  780 110 5160
330       153617 110  780 110   0
331      -153617 110  780 110 5160
332       158006 110  780 110   0
333      -158006 110  780 110 5160
334       162395 110  780 110   0
335      -162395 110  780 110 5160
336       166784 110  780 110   0
337      -166784 110  780 110 5160
338       171173 110  780 110   0
339      -171173 110  780 110 5160
340       175562 110  780 110   0
341      -175562 110  780 110 5160
342       179951 110  780 110   0
343      -179951 110  780 110 5160
344       184340 110  780 110   0
345      -184340 110  780 110 5160
346       188729 110  780 110   0
347      -188729 110  780 110 5160
348       193118 110  780 110   0
349      -193118 110  780 110 5160
350       197507 110  780 110   0
351      -197507 110  780 110 5160
352       201896 110  780 110   0
353      -201896 110  780 110 5160
354       206285 110  780 110   0
355      -206285 110  780 110 5160
356       210674 110  780 110   0
357      -210674 110  780 110 5160
358       215063 110  780 110   0
359      -215063 110  780 110 5160
360       219452 110  780 110   0
361      -219452 110  780 110 5160
362       223841 110  780 110   0
363      -223841 110  780 110 5160
364       228230 110  780 110   0
365      -228230 110  780 110 5160
366       232619 110  780 110   0
367      -232619 110  780 110 5160
368       237008 110  780 110   0
369      -237008 110  780 110 5160
370       241397 110  780 110   0
371      -241397 110  780 110 5160
372       245787 110  780 110   0
373      -245787 110  780 110 5160
374       250176 110  780 110   0
375      -250176 110  780 110 5160
376       254565 110  780 110   0
377      -254565 110  780 110 5160
378       258954 110  780 110   0
379      -258954 110  780 110 5160
380       263343 110  780 110   0
381      -263343 110  780 110 5160
382       267732 110  780 110   0
383      -267732 110  780 110 5160
384       272121 110  780 110   0
385      -272121 110  780 110 5160
386       276510 110  780 110   0
387      -276510 110  780 110 5160
388       280899 110  780 110   0
389      -280899 110  780 110 5160
390       285288 110  780 110   0
391      -285288 110  780 110 5160
392       289677 110  780 110   0
393      -289677 110  780 110 5160
394       294066 110  780 110   0
395      -294066 110  780 110 5160
396       298455 110  780 110   0
397      -298455 110  780 110 5160
398       302844 110  780 110   0
399      -302844 110  780 110 5160
400       307233 110  780 110   0
401      -307233 110  780 110 5160
402       311622 110  780 110   0
403      -311622 110  780 110 5160
404       316011 110  780 110   0
405      -316011 110  780 110 5160
406       320400 110  780 110   0
407      -320400 110  780 110 5160
408       324789 110  780 110   0
409      -324789 110  780 110 5160
410       329178 110  780 110   0
411      -329178 110  780 110 5160
412       333567 110  780 110   0
413      -333567 110  780 110 5160
414       337956 110  780 110   0
415      -337956 110  780 110 5160
416       342346 110  780 110   0
417      -342346 110  780 110 5160
418       346735 110  780 110   0
419      -346735 110  780 110 5160
420       351124 110  780 110   0
421      -351124 110  780 110 5160
422       355513 110  780 110   0
423      -355513 110  780 110 5160
424       359902 110  780 110   0
425      -359902 110  780 110 5160
426       364291 110  780 110   0
427      -364291 110  780 110 5160
428       368680 110  780 110   0
429      -368680 110  780 110 5160
430       373069 110  780 110   0
431      -373069 110  780 110 5160
432       377458 110  780 110   0
433      -377458 110  780 110 5160
434       381847 110  780 110   0
435      -381847 110  780 110 5160
436       386236 110  780 110   0
437      -386236 110  780 110 5160
438       390625 110  780 110   0
439      -390625 110  780 110 5160
440       395014 110  780 110   0
441      -395014 110  780 110 5160
442       399403 110  780 110   0
443      -399403 110  780 110 5160
444       403792 110  780 110   0
445      -403792 110  780 110 5160
446       408181 110  780 110   0
447      -408181 110  780 110 5160
448       412570 110  780 110   0
449      -412570 110  780 110 5160
450       416959 110  780 110   0
451      -416959 110  780 110 5160
452       421348 110  780 110   0
453      -421348 110  780 110 5160
454       425737 110  780 110   0
455      -425737 110  780 110 5160
456       430126 110  780 110   0
457      -430126 110  780 110 5160
458       434515 110  780 110   0
459      -434515 110  780 110 5160
460       438904 110  780 110   0
461      -438904 110  780 110 5160
462       443294 110  780 110   0
463      -443294 110  780 110 5160
464       447683 110  780 110   0
465      -447683 110  780 110 5160
466       452072 110  780 110   0
467      -452072 110  780 110 5160
468       456461 110  780 110   0
469      -456461 110  780 110 5160
470       460850 110  780 110   0
471      -460850 110  780 110 5160
472       465239 110  780 110   0
473      -465239 110  780 110 5160
474       469628 110  780 110   0
475      -469628 110  780 110 5160
476       474017 110  780 110   0
477      -474017 110  780 110 5160
478       478406 110  780 110   0
479      -478406 110  780 110 5160
480       482795 110  780 110   0
481      -482795 110  780 110 5160
482       487184 110  780 110   0
483      -487184 110  780 110 5160
484       491573 110  780 110   0
485      -491573 110  780 110 5160
486       495962 110  780 110   0
487      -495962 110  780 110 5160
488       500351 110  780 110   0
489      -500351 110  780 110 5160
490       504740 110  780 110   0
491      -504740 110  780 110 5160
492       509129 110  780 110   0
493      -509129 110  780 110 5160
494       513518 110  780 110   0
495      -513518 110  780 110 5160
496       517907 110  780 110   0
497      -517907 110  780 110 5160
498       522296 110  780 110   0
499      -522296 110  780 110 5160
500       526685 110  780 110   0
501      -526685 110  780 110 5160
502       531074 110  780 110   0
503      -531074 110  780 110 5160
504       535463 110  780 110   0
505      -535463 110  780 110 5160
506       539853 110  780 110   0
507      -539853 110  780 110 5160
508       544242 110  780 110   0
509      -544242 110  780 110 5160
510       548631 110  780 110   0
511      -548631 110  780 110 5160
512       553020 110  780 110   0
513      -553020 110  780 110 5160
514       557409 110  780 110   0
515      -557409 110  780 110 5160
516       444444  90 3000  90  10
517      -827309 170  660 170   0

# Format of ADC events:
# id num dwell delay freq phase
# ..  ..    ns    us   Hz   rad
[ADC]
1 256 20000 40 0 1.88496
2 256 20000 40 0 3.76991
3 256 20000 40 0 3.45575
4 256 20000 40 0 0.942478
5 256 20000 40 0 2.51327
6 256 20000 40 0 5.34071
7 256 20000 40 0 0.314159
8 256 20000 40 0 5.65487
9 256 20000 40 0 2.19911
10 256 20000 40 0 5.02655
11 256 20000 40 0 4.08407
12 256 20000 40 0 0.628319

# Format of extension lists:
# id type ref next_id
# next_id of 0 terminates the list
# Extension list is followed by extension specifications
[EXTENSIONS]
1 1 1 0
2 1 2 0
3 1 3 0
4 1 4 0
5 1 5 0
6 1 6 0
7 1 7 0
8 1 8 0
9 1 9 0
10 1 10 0
11 1 11 0
12 1 12 0
13 1 13 0
14 1 14 0
15 1 15 0
16 1 16 0
17 1 17 0
18 1 18 0
19 1 19 0
20 1 20 0
21 1 21 0
22 1 22 0
23 1 23 0
24 1 24 0
25 1 25 0
26 1 26 0
27 1 27 0
28 1 28 0
29 1 29 0
30 1 30 0
31 1 31 0
32 1 32 0
33 1 33 0
34 1 34 0
35 1 35 0
36 1 36 0
37 1 37 0
38 1 38 0
39 1 39 0
40 1 40 0
41 1 41 0
42 1 42 0
43 1 43 0
44 1 44 0
45 1 45 0
46 1 46 0
47 1 47 0
48 1 48 0
49 1 49 0
50 1 50 0
51 1 51 0
52 1 52 0
53 1 53 0
54 1 54 0
55 1 55 0
56 1 56 0
57 1 57 0
58 1 58 0
59 1 59 0
60 1 60 0
61 1 61 0
62 1 62 0
63 1 63 0
64 1 64 0
65 1 65 0
66 1 66 0
67 1 67 0
68 1 68 0
69 1 69 0
70 1 70 0
71 1 71 0
72 1 72 0
73 1 73 0
74 1 74 0
75 1 75 0
76 1 76 0
77 1 77 0
78 1 78 0
79 1 79 0
80 1 80 0
81 1 81 0
82 1 82 0
83 1 83 0
84 1 84 0
85 1 85 0
86 1 86 0
87 1 87 0
88 1 88 0
89 1 89 0
90 1 90 0
91 1 91 0
