# Pulseq sequence file
# Created by MATLAB mr toolbox

[VERSION]
major 1
minor 4
revision 1

[DEFINITIONS]
AdcRasterTime 1e-07 
BlockDurationRaster 1e-05 
FOV 0.256 0.256 0.003 
GradientRasterTime 1e-05 
Name gre 
RadiofrequencyRasterTime 1e-06 
SliceGap 0 
SlicePositions 0 
SliceThickness 0.003 
TotalDuration 5.12256 

# Format of blocks:
# NUM DUR RF  GX  GY  GZ  ADC  EXT
[BLOCKS]
   1 319   1   0   0   1  0  0
   2 100   0   3   0   2  0  0
   3  81   0   0   0   0  0  0
   4 520   0   4   0   0  1  0
   5 981   0   6   0   5  0  0
   6 319   2   0   0   1  0  0
   7 100   0   7   8   2  0  0
   8  81   0   0   0   0  0  0
   9 520   0   9  10   0  2  0
  10 981   0  11  12   5  0  0
  11 319   3   0   0   1  0  0
  12 100   0  13  14   2  0  0
  13  81   0   0   0   0  0  0
  14 520   0  15  16   0  3  0
  15 981   0  17  18   5  0  0
  16 319   4   0   0   1  0  0
  17 100   0  19  20   2  0  0
  18  81   0   0   0   0  0  0
  19 520   0  21  22   0  4  0
  20 981   0  23  24   5  0  0
  21 319   5   0   0   1  0  0
  22 100   0  25  26   2  0  0
  23  81   0   0   0   0  0  0
  24 520   0  27  28   0  5  0
  25 981   0  29  30   5  0  0
  26 319   1   0   0   1  0  0
  27 100   0  31  32   2  0  0
  28  81   0   0   0   0  0  0
  29 520   0  33  34   0  1  0
  30 981   0  35  36   5  0  0
  31 319   6   0   0   1  0  0
  32 100   0  37  38   2  0  0
  33  81   0   0   0   0  0  0
  34 520   0  39  40   0  6  0
  35 981   0  41  42   5  0  0
  36 319   7   0   0   1  0  0
  37 100   0  43  44   2  0  0
  38  81   0   0   0   0  0  0
  39 520   0  45  46   0  7  0
  40 981   0  47  48   5  0  0
  41 319   8   0   0   1  0  0
  42 100   0  49  50   2  0  0
  43  81   0   0   0   0  0  0
  44 520   0  51  52   0  8  0
  45 981   0  53  54   5  0  0
  46 319   5   0   0   1  0  0
  47 100   0  55  56   2  0  0
  48  81   0   0   0   0  0  0
  49 520   0  57  58   0  5  0
  50 981   0  59  60   5  0  0
  51 319   3   0   0   1  0  0
  52 100   0  61  62   2  0  0
  53  81   0   0   0   0  0  0
  54 520   0  63  64   0  3  0
  55 981   0  65  66   5  0  0
  56 319   9   0   0   1  0  0
  57 100   0  67  68   2  0  0
  58  81   0   0   0   0  0  0
  59 520   0  69  70   0  9  0
  60 981   0  71  72   5  0  0
  61 319  10   0   0   1  0  0
  62 100   0  73  74   2  0  0
  63  81   0   0   0   0  0  0
  64 520   0  75  76   0 10  0
  65 981   0  77  78   5  0  0
  66 319   8   0   0   1  0  0
  67 100   0  79  80   2  0  0
  68  81   0   0   0   0  0  0
  69 520   0  81  82   0  8  0
  70 981   0  83  84   5  0  0
  71 319  11   0   0   1  0  0
  72 100   0  85  86   2  0  0
  73  81   0   0   0   0  0  0
  74 520   0  87  88   0 11  0
  75 981   0  89  90   5  0  0
  76 319   7   0   0   1  0  0
  77 100   0  91  92   2  0  0
  78  81   0   0   0   0  0  0
  79 520   0  93  94   0  7  0
  80 981   0  95  96   5  0  0
  81 319  12   0   0   1  0  0
  82 100   0  97  98   2  0  0
  83  81   0   0   0   0  0  0
  84 520   0  99 100   0 12  0
  85 981   0 101 102   5  0  0
  86 319  10   0   0   1  0  0
  87 100   0 103 104   2  0  0
  88  81   0   0   0   0  0  0
  89 520   0 105 106   0 10  0
  90 981   0 107 108   5  0  0
  91 319   4   0   0   1  0  0
  92 100   0 109 110   2  0  0
  93  81   0   0   0   0  0  0
  94 520   0 111 112   0  4  0
  95 981   0 113 114   5  0  0
  96 319   4   0   0   1  0  0
  97 100   0 115 116   2  0  0
  98  81   0   0   0   0  0  0
  99 520   0 117 118   0  4  0
 100 981   0 119 120   5  0  0
 101 319  10   0   0   1  0  0
 102 100   0 121 122   2  0  0
 103  81   0   0   0   0  0  0
 104 520   0 123 124   0 10  0
 105 981   0 125 126   5  0  0
 106 319  12   0   0   1  0  0
 107 100   0 127 128   2  0  0
 108  81   0   0   0   0  0  0
 109 520   0 129 130   0 12  0
 110 981   0 131 132   5  0  0
 111 319   7   0   0   1  0  0
 112 100   0 133 134   2  0  0
 113  81   0   0   0   0  0  0
 114 520   0 135 136   0  7  0
 115 981   0 137 138   5  0  0
 116 319  11   0   0   1  0  0
 117 100   0 139 140   2  0  0
 118  81   0   0   0   0  0  0
 119 520   0 141 142   0 11  0
 120 981   0 143 144   5  0  0
 121 319   8   0   0   1  0  0
 122 100   0 145 146   2  0  0
 123  81   0   0   0   0  0  0
 124 520   0 147 148   0  8  0
 125 981   0 149 150   5  0  0
 126 319  10   0   0   1  0  0
 127 100   0 151 152   2  0  0
 128  81   0   0   0   0  0  0
 129 520   0 153 154   0 10  0
 130 981   0 155 156   5  0  0
 131 319   9   0   0   1  0  0
 132 100   0 157 158   2  0  0
 133  81   0   0   0   0  0  0
 134 520   0 159 160   0  9  0
 135 981   0 161 162   5  0  0
 136 319   3   0   0   1  0  0
 137 100   0 163 164   2  0  0
 138  81   0   0   0   0  0  0
 139 520   0 165 166   0  3  0
 140 981   0 167 168   5  0  0
 141 319   5   0   0   1  0  0
 142 100   0 169 170   2  0  0
 143  81   0   0   0   0  0  0
 144 520   0 171 172   0  5  0
 145 981   0 173 174   5  0  0
 146 319   8   0   0   1  0  0
 147 100   0 175 176   2  0  0
 148  81   0   0   0   0  0  0
 149 520   0 177 178   0  8  0
 150 981   0 179 180   5  0  0
 151 319   7   0   0   1  0  0
 152 100   0 181 182   2  0  0
 153  81   0   0   0   0  0  0
 154 520   0 183 184   0  7  0
 155 981   0 185 186   5  0  0
 156 319   6   0   0   1  0  0
 157 100   0 187 188   2  0  0
 158  81   0   0   0   0  0  0
 159 520   0 189 190   0  6  0
 160 981   0 191 192   5  0  0
 161 319   1   0   0   1  0  0
 162 100   0 193 194   2  0  0
 163  81   0   0   0   0  0  0
 164 520   0 195 196   0  1  0
 165 981   0 197 198   5  0  0
 166 319   5   0   0   1  0  0
 167 100   0 199 200   2  0  0
 168  81   0   0   0   0  0  0
 169 520   0 201 202   0  5  0
 170 981   0 203 204   5  0  0
 171 319   4   0   0   1  0  0
 172 100   0 205 206   2  0  0
 173  81   0   0   0   0  0  0
 174 520   0 207 208   0  4  0
 175 981   0 209 210   5  0  0
 176 319   3   0   0   1  0  0
 177 100   0 211 212   2  0  0
 178  81   0   0   0   0  0  0
 179 520   0 213 214   0  3  0
 180 981   0 215 216   5  0  0
 181 319   2   0   0   1  0  0
 182 100   0 217 218   2  0  0
 183  81   0   0   0   0  0  0
 184 520   0 219 220   0  2  0
 185 981   0 221 222   5  0  0
 186 319   1   0   0   1  0  0
 187 100   0 223 224   2  0  0
 188  81   0   0   0   0  0  0
 189 520   0 225 226   0  1  0
 190 981   0 227 228   5  0  0
 191 319  11   0   0   1  0  0
 192 100   0 229 230   2  0  0
 193  81   0   0   0   0  0  0
 194 520   0 231 232   0 11  0
 195 981   0 233 234   5  0  0
 196 319  11   0   0   1  0  0
 197 100   0 235 236   2  0  0
 198  81   0   0   0   0  0  0
 199 520   0 237 238   0 11  0
 200 981   0 239 240   5  0  0
 201 319   1   0   0   1  0  0
 202 100   0 241 242   2  0  0
 203  81   0   0   0   0  0  0
 204 520   0 243 244   0  1  0
 205 981   0 245 246   5  0  0
 206 319   2   0   0   1  0  0
 207 100   0 247 248   2  0  0
 208  81   0   0   0   0  0  0
 209 520   0 249 250   0  2  0
 210 981   0 251 252   5  0  0
 211 319   3   0   0   1  0  0
 212 100   0 253 254   2  0  0
 213  81   0   0   0   0  0  0
 214 520   0 255 256   0  3  0
 215 981   0 257 258   5  0  0
 216 319   4   0   0   1  0  0
 217 100   0 259 260   2  0  0
 218  81   0   0   0   0  0  0
 219 520   0 261 262   0  4  0
 220 981   0 263 264   5  0  0
 221 319   5   0   0   1  0  0
 222 100   0 265 266   2  0  0
 223  81   0   0   0   0  0  0
 224 520   0 267 268   0  5  0
 225 981   0 269 270   5  0  0
 226 319   1   0   0   1  0  0
 227 100   0 271 272   2  0  0
 228  81   0   0   0   0  0  0
 229 520   0 273 274   0  1  0
 230 981   0 275 276   5  0  0
 231 319   6   0   0   1  0  0
 232 100   0 277 278   2  0  0
 233  81   0   0   0   0  0  0
 234 520   0 279 280   0  6  0
 235 981   0 281 282   5  0  0
 236 319   7   0   0   1  0  0
 237 100   0 283 284   2  0  0
 238  81   0   0   0   0  0  0
 239 520   0 285 286   0  7  0
 240 981   0 287 288   5  0  0
 241 319   8   0   0   1  0  0
 242 100   0 289 290   2  0  0
 243  81   0   0   0   0  0  0
 244 520   0 291 292   0  8  0
 245 981   0 293 294   5  0  0
 246 319   5   0   0   1  0  0
 247 100   0 295 296   2  0  0
 248  81   0   0   0   0  0  0
 249 520   0 297 298   0  5  0
 250 981   0 299 300   5  0  0
 251 319   3   0   0   1  0  0
 252 100   0 301 302   2  0  0
 253  81   0   0   0   0  0  0
 254 520   0 303 304   0  3  0
 255 981   0 305 306   5  0  0
 256 319   9   0   0   1  0  0
 257 100   0 307 308   2  0  0
 258  81   0   0   0   0  0  0
 259 520   0 309 310   0  9  0
 260 981   0 311 312   5  0  0
 261 319  10   0   0   1  0  0
 262 100   0 313 314   2  0  0
 263  81   0   0   0   0  0  0
 264 520   0 315 316   0 10  0
 265 981   0 317 318   5  0  0
 266 319   8   0   0   1  0  0
 267 100   0 319 320   2  0  0
 268  81   0   0   0   0  0  0
 269 520   0 321 322   0  8  0
 270 981   0 323 324   5  0  0
 271 319  11   0   0   1  0  0
 272 100   0 325 326   2  0  0
 273  81   0   0   0   0  0  0
 274 520   0 327 328   0 11  0
 275 981   0 329 330   5  0  0
 276 319   7   0   0   1  0  0
 277 100   0 331 332   2  0  0
 278  81   0   0   0   0  0  0
 279 520   0 333 334   0  7  0
 280 981   0 335 336   5  0  0
 281 319  12   0   0   1  0  0
 282 100   0 337 338   2  0  0
 283  81   0   0   0   0  0  0
 284 520   0 339 340   0 12  0
 285 981   0 341 342   5  0  0
 286 319  10   0   0   1  0  0
 287 100   0 343 344   2  0  0
 288  81   0   0   0   0  0  0
 289 520   0 345 346   0 10  0
 290 981   0 347 348   5  0  0
 291 319   4   0   0   1  0  0
 292 100   0 349 350   2  0  0
 293  81   0   0   0   0  0  0
 294 520   0 351 352   0  4  0
 295 981   0 353 354   5  0  0
 296 319   4   0   0   1  0  0
 297 100   0 355 356   2  0  0
 298  81   0   0   0   0  0  0
 299 520   0 357 358   0  4  0
 300 981   0 359 360   5  0  0
 301 319  10   0   0   1  0  0
 302 100   0 361 362   2  0  0
 303  81   0   0   0   0  0  0
 304 520   0 363 364   0 10  0
 305 981   0 365 366   5  0  0
 306 319  12   0   0   1  0  0
 307 100   0 367 368   2  0  0
 308  81   0   0   0   0  0  0
 309 520   0 369 370   0 12  0
 310 981   0 371 372   5  0  0
[RF]
1      37.2185 1 2 0 100 0 1.88496
2      37.2185 1 2 0 100 0 3.76991
3      37.2185 1 2 0 100 0 3.45575
4      37.2185 1 2 0 100 0 0.942478
5      37.2185 1 2 0 100 0 2.51327
6      37.2185 1 2 0 100 0 5.34071
7      37.2185 1 2 0 100 0 0.314159
8      37.2185 1 2 0 100 0 5.65487
9      37.2185 1 2 0 100 0 2.19911
10      37.2185 1 2 0 100 0 5.02655
11      37.2185 1 2 0 100 0 4.08407
12      37.2185 1 2 0 100 0 0.628319

# Format of trapezoid gradients:
# id amplitude rise flat fall delay
# ..      Hz/m   us   us   us    us
[TRAP]
 1       444444  90 3000  90  10
 2      -827309 170  660 170   0
 3      -574840 120  760 120   0
 4       195312  40 5120  40   0
 5       932401 190 1240 190   0
 6       934579 190 1950 190   0
 7      -574797 120  760 120   0
 8     -7054.17 120  760 120   0
 9       195298  40 5120  40   0
10      2396.78  40 5120  40   0
11       934509 190 1950 190   0
12      11468.7 190 1950 190   0
13      -574667 120  760 120   0
14     -14107.3 120  760 120   0
15       195254  40 5120  40   0
16      4793.21  40 5120  40   0
17       934298 190 1950 190   0
18      22935.7 190 1950 190   0
19      -574451 120  760 120   0
20     -21158.3 120  760 120   0
21       195180  40 5120  40   0
22      7188.91  40 5120  40   0
23       933946 190 1950 190   0
24      34399.3 190 1950 190   0
25      -574148 120  760 120   0
26     -28206.1 120  760 120   0
27       195077  40 5120  40   0
28      9583.53  40 5120  40   0
29       933454 190 1950 190   0
30      45857.6 190 1950 190   0
31      -573758 120  760 120   0
32     -35249.6 120  760 120   0
33       194945  40 5120  40   0
34      11976.7  40 5120  40   0
35       932821 190 1950 190   0
36      57309.1 190 1950 190   0
37      -573283 120  760 120   0
38     -42287.9 120  760 120   0
39       194783  40 5120  40   0
40      14368.1  40 5120  40   0
41       932047 190 1950 190   0
42      68751.9 190 1950 190   0
43      -572721 120  760 120   0
44     -49319.7 120  760 120   0
45       194592  40 5120  40   0
46      16757.3  40 5120  40   0
47       931133 190 1950 190   0
48      80184.4 190 1950 190   0
49      -572072 120  760 120   0
50     -56344.2 120  760 120   0
51       194372  40 5120  40   0
52        19144  40 5120  40   0
53       930079 190 1950 190   0
54      91604.8 190 1950 190   0
55      -571338 120  760 120   0
56     -63360.2 120  760 120   0
57       194122  40 5120  40   0
58      21527.8  40 5120  40   0
59       928885 190 1950 190   0
60       103011 190 1950 190   0
61      -570517 120  760 120   0
62     -70366.6 120  760 120   0
63       193844  40 5120  40   0
64      23908.3  40 5120  40   0
65       927551 190 1950 190   0
66       114403 190 1950 190   0
67      -569611 120  760 120   0
68     -77362.4 120  760 120   0
69       193536  40 5120  40   0
70      26285.3  40 5120  40   0
71       926077 190 1950 190   0
72       125776 190 1950 190   0
73      -568618 120  760 120   0
74     -84346.6 120  760 120   0
75       193199  40 5120  40   0
76      28658.3  40 5120  40   0
77       924464 190 1950 190   0
78       137131 190 1950 190   0
79      -567541 120  760 120   0
80       -91318 120  760 120   0
81       192832  40 5120  40   0
82        31027  40 5120  40   0
83       922712 190 1950 190   0
84       148466 190 1950 190   0
85      -566377 120  760 120   0
86     -98275.8 120  760 120   0
87       192437  40 5120  40   0
88        33391  40 5120  40   0
89       920820 190 1950 190   0
90       159777 190 1950 190   0
91      -565129 120  760 120   0
92      -105219 120  760 120   0
93       192013  40 5120  40   0
94        35750  40 5120  40   0
95       918790 190 1950 190   0
96       171065 190 1950 190   0
97      -563795 120  760 120   0
98      -112146 120  760 120   0
99       191560  40 5120  40   0
100      38103.6  40 5120  40   0
101       916622 190 1950 190   0
102       182327 190 1950 190   0
103      -562376 120  760 120   0
104      -119056 120  760 120   0
105       191078  40 5120  40   0
106      40451.4  40 5120  40   0
107       914315 190 1950 190   0
108       193562 190 1950 190   0
109      -560873 120  760 120   0
110      -125948 120  760 120   0
111       190567  40 5120  40   0
112      42793.2  40 5120  40   0
113       911871 190 1950 190   0
114       204768 190 1950 190   0
115      -559285 120  760 120   0
116      -132821 120  760 120   0
117       190027  40 5120  40   0
118      45128.5  40 5120  40   0
119       909290 190 1950 190   0
120       215942 190 1950 190   0
121      -557613 120  760 120   0
122      -139675 120  760 120   0
123       189459  40 5120  40   0
124      47457.1  40 5120  40   0
125       906571 190 1950 190   0
126       227084 190 1950 190   0
127      -555857 120  760 120   0
128      -146507 120  760 120   0
129       188863  40 5120  40   0
130      49778.4  40 5120  40   0
131       903716 190 1950 190   0
132       238192 190 1950 190   0
133      -554017 120  760 120   0
134      -153317 120  760 120   0
135       188238  40 5120  40   0
136      52092.3  40 5120  40   0
137       900725 190 1950 190   0
138       249264 190 1950 190   0
139      -552094 120  760 120   0
140      -160104 120  760 120   0
141       187584  40 5120  40   0
142      54398.4  40 5120  40   0
143       897599 190 1950 190   0
144       260299 190 1950 190   0
145      -550088 120  760 120   0
146      -166867 120  760 120   0
147       186902  40 5120  40   0
148      56696.2  40 5120  40   0
149       894337 190 1950 190   0
150       271294 190 1950 190   0
151      -547999 120  760 120   0
152      -173605 120  760 120   0
153       186193  40 5120  40   0
154      58985.5  40 5120  40   0
155       890940 190 1950 190   0
156       282249 190 1950 190   0
157      -545827 120  760 120   0
158      -180317 120  760 120   0
159       185455  40 5120  40   0
160        61266  40 5120  40   0
161       887410 190 1950 190   0
162       293161 190 1950 190   0
163      -543573 120  760 120   0
164      -187001 120  760 120   0
165       184689  40 5120  40   0
166      63537.2  40 5120  40   0
167       883745 190 1950 190   0
168       304028 190 1950 190   0
169      -541237 120  760 120   0
170      -193658 120  760 120   0
171       183895  40 5120  40   0
172      65798.8  40 5120  40   0
173       879948 190 1950 190   0
174       314850 190 1950 190   0
175      -538820 120  760 120   0
176      -200285 120  760 120   0
177       183074  40 5120  40   0
178      68050.5  40 5120  40   0
179       876018 190 1950 190   0
180       325625 190 1950 190   0
181      -536322 120  760 120   0
182      -206882 120  760 120   0
183       182225  40 5120  40   0
184        70292  40 5120  40   0
185       871956 190 1950 190   0
186       336351 190 1950 190   0
187      -533743 120  760 120   0
188      -213448 120  760 120   0
189       181349  40 5120  40   0
190      72522.9  40 5120  40   0
191       867763 190 1950 190   0
192       347025 190 1950 190   0
193      -531083 120  760 120   0
194      -219982 120  760 120   0
195       180445  40 5120  40   0
196      74742.9  40 5120  40   0
197       863439 190 1950 190   0
198       357648 190 1950 190   0
199      -528344 120  760 120   0
200      -226482 120  760 120   0
201       179514  40 5120  40   0
202      76951.6  40 5120  40   0
203       858985 190 1950 190   0
204       368217 190 1950 190   0
205      -525525 120  760 120   0
206      -232949 120  760 120   0
207       178557  40 5120  40   0
208      79148.7  40 5120  40   0
209       854402 190 1950 190   0
210       378730 190 1950 190   0
211      -522626 120  760 120   0
212      -239380 120  760 120   0
213       177572  40 5120  40   0
214      81333.9  40 5120  40   0
215       849690 190 1950 190   0
216       389187 190 1950 190   0
217      -519649 120  760 120   0
218      -245776 120  760 120   0
219       176560  40 5120  40   0
220      83506.9  40 5120  40   0
221       844850 190 1950 190   0
222       399584 190 1950 190   0
223      -516594 120  760 120   0
224      -252134 120  760 120   0
225       175522  40 5120  40   0
226      85667.2  40 5120  40   0
227       839883 190 1950 190   0
228       409922 190 1950 190   0
229      -513461 120  760 120   0
230      -258455 120  760 120   0
231       174458  40 5120  40   0
232      87814.7  40 5120  40   0
233       834789 190 1950 190   0
234       420198 190 1950 190   0
235      -510251 120  760 120   0
236      -264736 120  760 120   0
237       173367  40 5120  40   0
238        89949  40 5120  40   0
239       829570 190 1950 190   0
240       430410 190 1950 190   0
241      -506964 120  760 120   0
242      -270978 120  760 120   0
243       172250  40 5120  40   0
244      92069.7  40 5120  40   0
245       824225 190 1950 190   0
246       440558 190 1950 190   0
247      -503600 120  760 120   0
248      -277179 120  760 120   0
249       171107  40 5120  40   0
250      94176.5  40 5120  40   0
251       818757 190 1950 190   0
252       450639 190 1950 190   0
253      -500161 120  760 120   0
254      -283338 120  760 120   0
255       169939  40 5120  40   0
256      96269.2  40 5120  40   0
257       813165 190 1950 190   0
258       460653 190 1950 190   0
259      -496646 120  760 120   0
260      -289454 120  760 120   0
261       168745  40 5120  40   0
262      98347.3  40 5120  40   0
263       807451 190 1950 190   0
264       470597 190 1950 190   0
265      -493057 120  760 120   0
266      -295527 120  760 120   0
267       167525  40 5120  40   0
268       100411  40 5120  40   0
269       801616 190 1950 190   0
270       480470 190 1950 190   0
271      -489393 120  760 120   0
272      -301555 120  760 120   0
273       166280  40 5120  40   0
274       102459  40 5120  40   0
275       795659 190 1950 190   0
276       490271 190 1950 190   0
277      -485656 120  760 120   0
278      -307538 120  760 120   0
279       165010  40 5120  40   0
280       104492  40 5120  40   0
281       789583 190 1950 190   0
282       499998 190 1950 190   0
283      -481845 120  760 120   0
284      -313475 120  760 120   0
285       163716  40 5120  40   0
286       106509  40 5120  40   0
287       783388 190 1950 190   0
288       509650 190 1950 190   0
289      -477962 120  760 120   0
290      -319364 120  760 120   0
291       162396  40 5120  40   0
292       108510  40 5120  40   0
293       777074 190 1950 190   0
294       519225 190 1950 190   0
295      -474007 120  760 120   0
296      -325205 120  760 120   0
297       161053  40 5120  40   0
298       110494  40 5120  40   0
299       770644 190 1950 190   0
300       528721 190 1950 190   0
301      -469981 120  760 120   0
302      -330998 120  760 120   0
303       159685  40 5120  40   0
304       112463  40 5120  40   0
305       764098 190 1950 190   0
306       538138 190 1950 190   0
307      -465883 120  760 120   0
308      -336740 120  760 120   0
309       158292  40 5120  40   0
310       114414  40 5120  40   0
311       757437 190 1950 190   0
312       547475 190 1950 190   0
313      -461716 120  760 120   0
314      -342432 120  760 120   0
315       156876  40 5120  40   0
316       116348  40 5120  40   0
317       750661 190 1950 190   0
318       556728 190 1950 190   0
319      -457479 120  760 120   0
320      -348072 120  760 120   0
321       155437  40 5120  40   0
322       118264  40 5120  40   0
323       743773 190 1950 190   0
324       565898 190 1950 190   0
325      -453173 120  760 120   0
326      -353660 120  760 120   0
327       153974  40 5120  40   0
328       120162  40 5120  40   0
329       736772 190 1950 190   0
330       574983 190 1950 190   0
331      -448799 120  760 120   0
332      -359194 120  760 120   0
333       152488  40 5120  40   0
334       122043  40 5120  40   0
335       729661 190 1950 190   0
336       583981 190 1950 190   0
337      -444357 120  760 120   0
338      -364675 120  760 120   0
339       150979  40 5120  40   0
340       123905  40 5120  40   0
341       722440 190 1950 190   0
342       592891 190 1950 190   0
343      -439849 120  760 120   0
344      -370100 120  760 120   0
345       149447  40 5120  40   0
346       125748  40 5120  40   0
347       715110 190 1950 190   0
348       601712 190 1950 190   0
349      -435274 120  760 120   0
350      -375470 120  760 120   0
351       147892  40 5120  40   0
352       127573  40 5120  40   0
353       707672 190 1950 190   0
354       610442 190 1950 190   0
355      -430634 120  760 120   0
356      -380783 120  760 120   0
357       146316  40 5120  40   0
358       129378  40 5120  40   0
359       700127 190 1950 190   0
360       619080 190 1950 190   0
361      -425928 120  760 120   0
362      -386039 120  760 120   0
363       144717  40 5120  40   0
364       131164  40 5120  40   0
365       692478 190 1950 190   0
366       627625 190 1950 190   0
367      -421159 120  760 120   0
368      -391237 120  760 120   0
369       143097  40 5120  40   0
370       132930  40 5120  40   0
371       684724 190 1950 190   0
372       636076 190 1950 190   0
373      -416326 120  760 120   0
374      -396376 120  760 120   0
375       141455  40 5120  40   0
376       134676  40 5120  40   0
377       676866 190 1950 190   0
378       644430 190 1950 190   0
379      -411431 120  760 120   0
380      -401455 120  760 120   0
381       139791  40 5120  40   0
382       136402  40 5120  40   0
383       668907 190 1950 190   0
384       652688 190 1950 190   0
385      -406473 120  760 120   0
386       138107  40 5120  40   0
387       660847 190 1950 190   0
388      7054.17 120  760 120   0
389     -2396.78  40 5120  40   0
390     -11468.7 190 1950 190   0
391      14107.3 120  760 120   0
392     -4793.21  40 5120  40   0
393     -22935.7 190 1950 190   0
394      21158.3 120  760 120   0
395     -7188.91  40 5120  40   0
396     -34399.3 190 1950 190   0
397      28206.1 120  760 120   0
398     -9583.53  40 5120  40   0
399     -45857.6 190 1950 190   0
400      35249.6 120  760 120   0
401     -11976.7  40 5120  40   0
402     -57309.1 190 1950 190   0
403      42287.9 120  760 120   0
404     -14368.1  40 5120  40   0
405     -68751.9 190 1950 190   0
406      49319.7 120  760 120   0
407     -16757.3  40 5120  40   0
408     -80184.4 190 1950 190   0
409      56344.2 120  760 120   0
410       -19144  40 5120  40   0
411     -91604.8 190 1950 190   0
412      63360.2 120  760 120   0
413     -21527.8  40 5120  40   0
414      -103011 190 1950 190   0
415      70366.6 120  760 120   0
416     -23908.3  40 5120  40   0
417      -114403 190 1950 190   0
418      77362.4 120  760 120   0
419     -26285.3  40 5120  40   0
420      -125776 190 1950 190   0
421      84346.6 120  760 120   0
422     -28658.3  40 5120  40   0
423      -137131 190 1950 190   0
424        91318 120  760 120   0
425       -31027  40 5120  40   0
426      -148466 190 1950 190   0
427      98275.8 120  760 120   0
428       -33391  40 5120  40   0
429      -159777 190 1950 190   0
430       105219 120  760 120   0
431       -35750  40 5120  40   0
432      -171065 190 1950 190   0
433       112146 120  760 120   0
434     -38103.6  40 5120  40   0
435      -182327 190 1950 190   0
436       119056 120  760 120   0
437     -40451.4  40 5120  40   0
438      -193562 190 1950 190   0
439       125948 120  760 120   0
440     -42793.2  40 5120  40   0
441      -204768 190 1950 190   0
442       132821 120  760 120   0
443     -45128.5  40 5120  40   0
444      -215942 190 1950 190   0
445       139675 120  760 120   0
446     -47457.1  40 5120  40   0
447      -227084 190 1950 190   0
448       146507 120  760 120   0
449     -49778.4  40 5120  40   0
450      -238192 190 1950 190   0
451       153317 120  760 120   0
452     -52092.3  40 5120  40   0
453      -249264 190 1950 190   0
454       160104 120  760 120   0
455     -54398.4  40 5120  40   0
456      -260299 190 1950 190   0
457       166867 120  760 120   0
458     -56696.2  40 5120  40   0
459      -271294 190 1950 190   0
460       173605 120  760 120   0
461     -58985.5  40 5120  40   0
462      -282249 190 1950 190   0
463       180317 120  760 120   0
464       -61266  40 5120  40   0
465      -293161 190 1950 190   0
466       187001 120  760 120   0
467     -63537.2  40 5120  40   0
468      -304028 190 1950 190   0
469       193658 120  760 120   0
470     -65798.8  40 5120  40   0
471      -314850 190 1950 190   0
472       200285 120  760 120   0
473     -68050.5  40 5120  40   0
474      -325625 190 1950 190   0
475       206882 120  760 120   0
476       -70292  40 5120  40   0
477      -336351 190 1950 190   0
478       213448 120  760 120   0
479     -72522.9  40 5120  40   0
480      -347025 190 1950 190   0
481       219982 120  760 120   0
482     -74742.9  40 5120  40   0
483      -357648 190 1950 190   0
484       226482 120  760 120   0
485     -76951.6  40 5120  40   0
486      -368217 190 1950 190   0
487       232949 120  760 120   0
488     -79148.7  40 5120  40   0
489      -378730 190 1950 190   0
490       239380 120  760 120   0
491     -81333.9  40 5120  40   0
492      -389187 190 1950 190   0
493       245776 120  760 120   0
494     -83506.9  40 5120  40   0
495      -399584 190 1950 190   0
496       252134 120  760 120   0
497     -85667.2  40 5120  40   0
498      -409922 190 1950 190   0
499       258455 120  760 120   0
500     -87814.7  40 5120  40   0
501      -420198 190 1950 190   0
502       264736 120  760 120   0
503       -89949  40 5120  40   0
504      -430410 190 1950 190   0
505       270978 120  760 120   0
506     -92069.7  40 5120  40   0
507      -440558 190 1950 190   0
508       277179 120  760 120   0
509     -94176.5  40 5120  40   0
510      -450639 190 1950 190   0
511       283338 120  760 120   0
512     -96269.2  40 5120  40   0
513      -460653 190 1950 190   0
514       289454 120  760 120   0
515     -98347.3  40 5120  40   0
516      -470597 190 1950 190   0
517       295527 120  760 120   0
518      -100411  40 5120  40   0
519      -480470 190 1950 190   0
520       301555 120  760 120   0
521      -102459  40 5120  40   0
522      -490271 190 1950 190   0
523       307538 120  760 120   0
524      -104492  40 5120  40   0
525      -499998 190 1950 190   0
526       313475 120  760 120   0
527      -106509  40 5120  40   0
528      -509650 190 1950 190   0
529       319364 120  760 120   0
530      -108510  40 5120  40   0
531      -519225 190 1950 190   0
532       325205 120  760 120   0
533      -110494  40 5120  40   0
534      -528721 190 1950 190   0
535       330998 120  760 120   0
536      -112463  40 5120  40   0
537      -538138 190 1950 190   0
538       336740 120  760 120   0
539      -114414  40 5120  40   0
540      -547475 190 1950 190   0
541       342432 120  760 120   0
542      -116348  40 5120  40   0
543      -556728 190 1950 190   0
544       348072 120  760 120   0
545      -118264  40 5120  40   0
546      -565898 190 1950 190   0
547       353660 120  760 120   0
548      -120162  40 5120  40   0
549      -574983 190 1950 190   0
550       359194 120  760 120   0
551      -122043  40 5120  40   0
552      -583981 190 1950 190   0
553       364675 120  760 120   0
554      -123905  40 5120  40   0
555      -592891 190 1950 190   0
556       370100 120  760 120   0
557      -125748  40 5120  40   0
558      -601712 190 1950 190   0
559       375470 120  760 120   0
560      -127573  40 5120  40   0
561      -610442 190 1950 190   0
562       380783 120  760 120   0
563      -129378  40 5120  40   0
564      -619080 190 1950 190   0
565       386039 120  760 120   0
566      -131164  40 5120  40   0
567      -627625 190 1950 190   0
568       391237 120  760 120   0
569      -132930  40 5120  40   0
570      -636076 190 1950 190   0
571       396376 120  760 120   0
572      -134676  40 5120  40   0
573      -644430 190 1950 190   0
574       401455 120  760 120   0
575      -136402  40 5120  40   0
