# Pulseq sequence file
# Created by MATLAB mr toolbox

[VERSION]
major 1
minor 4
revision 1

[DEFINITIONS]
AdcRasterTime 1e-07 
BlockDurationRaster 1e-05 
FOV 0.256 0.256 0.003 
GradientRasterTime 1e-05 
Name gre 
RadiofrequencyRasterTime 1e-06 
SliceGap 0 
SlicePositions 0 
SliceThickness 0.003 
TotalDuration 3.1872 

# Format of blocks:
# NUM DUR RF  GX  GY  GZ  ADC  EXT
[BLOCKS]
   1 319   1   0   0   1  0  0
   2 100   0   2   3   4  0  1
   3  81   0   0   0   0  0  0
   4 745   0   5   6   7  1  0
   5 319   2   0   0   1  0  0
   6 100   0   2   8   4  0  2
   7  81   0   0   0   0  0  0
   8 745   0   5   9   7  2  0
   9 319   3   0   0   1  0  0
  10 100   0   2  10   4  0  3
  11  81   0   0   0   0  0  0
  12 745   0   5  11   7  3  0
  13 319   4   0   0   1  0  0
  14 100   0   2  12   4  0  4
  15  81   0   0   0   0  0  0
  16 745   0   5  13   7  4  0
  17 319   5   0   0   1  0  0
  18 100   0   2  14   4  0  5
  19  81   0   0   0   0  0  0
  20 745   0   5  15   7  5  0
  21 319   1   0   0   1  0  0
  22 100   0   2  16   4  0  6
  23  81   0   0   0   0  0  0
  24 745   0   5  17   7  1  0
  25 319   6   0   0   1  0  0
  26 100   0   2  18   4  0  7
  27  81   0   0   0   0  0  0
  28 745   0   5  19   7  6  0
  29 319   7   0   0   1  0  0
  30 100   0   2  20   4  0  8
  31  81   0   0   0   0  0  0
  32 745   0   5  21   7  7  0
  33 319   8   0   0   1  0  0
  34 100   0   2  22   4  0  9
  35  81   0   0   0   0  0  0
  36 745   0   5  23   7  8  0
  37 319   5   0   0   1  0  0
  38 100   0   2  24   4  0 10
  39  81   0   0   0   0  0  0
  40 745   0   5  25   7  5  0
  41 319   3   0   0   1  0  0
  42 100   0   2  26   4  0 11
  43  81   0   0   0   0  0  0
  44 745   0   5  27   7  3  0
  45 319   9   0   0   1  0  0
  46 100   0   2  28   4  0 12
  47  81   0   0   0   0  0  0
  48 745   0   5  29   7  9  0
  49 319  10   0   0   1  0  0
  50 100   0   2  30   4  0 13
  51  81   0   0   0   0  0  0
  52 745   0   5  31   7 10  0
  53 319   8   0   0   1  0  0
  54 100   0   2  32   4  0 14
  55  81   0   0   0   0  0  0
  56 745   0   5  33   7  8  0
  57 319  11   0   0   1  0  0
  58 100   0   2  34   4  0 15
  59  81   0   0   0   0  0  0
  60 745   0   5  35   7 11  0
  61 319   7   0   0   1  0  0
  62 100   0   2  36   4  0 16
  63  81   0   0   0   0  0  0
  64 745   0   5  37   7  7  0
  65 319  12   0   0   1  0  0
  66 100   0   2  38   4  0 17
  67  81   0   0   0   0  0  0
  68 745   0   5  39   7 12  0
  69 319  10   0   0   1  0  0
  70 100   0   2  40   4  0 18
  71  81   0   0   0   0  0  0
  72 745   0   5  41   7 10  0
  73 319   4   0   0   1  0  0
  74 100   0   2  42   4  0 19
  75  81   0   0   0   0  0  0
  76 745   0   5  43   7  4  0
  77 319   4   0   0   1  0  0
  78 100   0   2  44   4  0 20
  79  81   0   0   0   0  0  0
  80 745   0   5  45   7  4  0
  81 319  10   0   0   1  0  0
  82 100   0   2  46   4  0 21
  83  81   0   0   0   0  0  0
  84 745   0   5  47   7 10  0
  85 319  12   0   0   1  0  0
  86 100   0   2  48   4  0 22
  87  81   0   0   0   0  0  0
  88 745   0   5  49   7 12  0
  89 319   7   0   0   1  0  0
  90 100   0   2  50   4  0 23
  91  81   0   0   0   0  0  0
  92 745   0   5  51   7  7  0
  93 319  11   0   0   1  0  0
  94 100   0   2  52   4  0 24
  95  81   0   0   0   0  0  0
  96 745   0   5  53   7 11  0
  97 319   8   0   0   1  0  0
  98 100   0   2  54   4  0 25
  99  81   0   0   0   0  0  0
 100 745   0   5  55   7  8  0
 101 319  10   0   0   1  0  0
 102 100   0   2  56   4  0 26
 103  81   0   0   0   0  0  0
 104 745   0   5  57   7 10  0
 105 319   9   0   0   1  0  0
 106 100   0   2  58   4  0 27
 107  81   0   0   0   0  0  0
 108 745   0   5  59   7  9  0
 109 319   3   0   0   1  0  0
 110 100   0   2  60   4  0 28
 111  81   0   0   0   0  0  0
 112 745   0   5  61   7  3  0
 113 319   5   0   0   1  0  0
 114 100   0   2  62   4  0 29
 115  81   0   0   0   0  0  0
 116 745   0   5  63   7  5  0
 117 319   8   0   0   1  0  0
 118 100   0   2  64   4  0 30
 119  81   0   0   0   0  0  0
 120 745   0   5  65   7  8  0
 121 319   7   0   0   1  0  0
 122 100   0   2  66   4  0 31
 123  81   0   0   0   0  0  0
 124 745   0   5  67   7  7  0
 125 319   6   0   0   1  0  0
 126 100   0   2  68   4  0 32
 127  81   0   0   0   0  0  0
 128 745   0   5  69   7  6  0
 129 319   1   0   0   1  0  0
 130 100   0   2  70   4  0 33
 131  81   0   0   0   0  0  0
 132 745   0   5  71   7  1  0
 133 319   5   0   0   1  0  0
 134 100   0   2  72   4  0 34
 135  81   0   0   0   0  0  0
 136 745   0   5  73   7  5  0
 137 319   4   0   0   1  0  0
 138 100   0   2  74   4  0 35
 139  81   0   0   0   0  0  0
 140 745   0   5  75   7  4  0
 141 319   3   0   0   1  0  0
 142 100   0   2  76   4  0 36
 143  81   0   0   0   0  0  0
 144 745   0   5  77   7  3  0
 145 319   2   0   0   1  0  0
 146 100   0   2  78   4  0 37
 147  81   0   0   0   0  0  0
 148 745   0   5  79   7  2  0
 149 319   1   0   0   1  0  0
 150 100   0   2  80   4  0 38
 151  81   0   0   0   0  0  0
 152 745   0   5  81   7  1  0
 153 319  11   0   0   1  0  0
 154 100   0   2  82   4  0 39
 155  81   0   0   0   0  0  0
 156 745   0   5  83   7 11  0
 157 319  11   0   0   1  0  0
 158 100   0   2  84   4  0 40
 159  81   0   0   0   0  0  0
 160 745   0   5  85   7 11  0
 161 319   1   0   0   1  0  0
 162 100   0   2  86   4  0 41
 163  81   0   0   0   0  0  0
 164 745   0   5  87   7  1  0
 165 319   2   0   0   1  0  0
 166 100   0   2  88   4  0 42
 167  81   0   0   0   0  0  0
 168 745   0   5  89   7  2  0
 169 319   3   0   0   1  0  0
 170 100   0   2  90   4  0 43
 171  81   0   0   0   0  0  0
 172 745   0   5  91   7  3  0
 173 319   4   0   0   1  0  0
 174 100   0   2  92   4  0 44
 175  81   0   0   0   0  0  0
 176 745   0   5  93   7  4  0
 177 319   5   0   0   1  0  0
 178 100   0   2  94   4  0 45
 179  81   0   0   0   0  0  0
 180 745   0   5  95   7  5  0
 181 319   1   0   0   1  0  0
 182 100   0   2  96   4  0 46
 183  81   0   0   0   0  0  0
 184 745   0   5  97   7  1  0
 185 319   6   0   0   1  0  0
 186 100   0   2  98   4  0 47
 187  81   0   0   0   0  0  0
 188 745   0   5  99   7  6  0
 189 319   7   0   0   1  0  0
 190 100   0   2 100   4  0 48
 191  81   0   0   0   0  0  0
 192 745   0   5 101   7  7  0
 193 319   8   0   0   1  0  0
 194 100   0   2 102   4  0 49
 195  81   0   0   0   0  0  0
 196 745   0   5 103   7  8  0
 197 319   5   0   0   1  0  0
 198 100   0   2 104   4  0 50
 199  81   0   0   0   0  0  0
 200 745   0   5 105   7  5  0
 201 319   3   0   0   1  0  0
 202 100   0   2 106   4  0 51
 203  81   0   0   0   0  0  0
 204 745   0   5 107   7  3  0
 205 319   9   0   0   1  0  0
 206 100   0   2 108   4  0 52
 207  81   0   0   0   0  0  0
 208 745   0   5 109   7  9  0
 209 319  10   0   0   1  0  0
 210 100   0   2 110   4  0 53
 211  81   0   0   0   0  0  0
 212 745   0   5 111   7 10  0
 213 319   8   0   0   1  0  0
 214 100   0   2 112   4  0 54
 215  81   0   0   0   0  0  0
 216 745   0   5 113   7  8  0
 217 319  11   0   0   1  0  0
 218 100   0   2 114   4  0 55
 219  81   0   0   0   0  0  0
 220 745   0   5 115   7 11  0
 221 319   7   0   0   1  0  0
 222 100   0   2 116   4  0 56
 223  81   0   0   0   0  0  0
 224 745   0   5 117   7  7  0
 225 319  12   0   0   1  0  0
 226 100   0   2 118   4  0 57
 227  81   0   0   0   0  0  0
 228 745   0   5 119   7 12  0
 229 319  10   0   0   1  0  0
 230 100   0   2 120   4  0 58
 231  81   0   0   0   0  0  0
 232 745   0   5 121   7 10  0
 233 319   4   0   0   1  0  0
 234 100   0   2 122   4  0 59
 235  81   0   0   0   0  0  0
 236 745   0   5 123   7  4  0
 237 319   4   0   0   1  0  0
 238 100   0   2 124   4  0 60
 239  81   0   0   0   0  0  0
 240 745   0   5 125   7  4  0
 241 319  10   0   0   1  0  0
 242 100   0   2 126   4  0 61
 243  81   0   0   0   0  0  0
 244 745   0   5 127   7 10  0
 245 319  12   0   0   1  0  0
 246 100   0   2 128   4  0 62
 247  81   0   0   0   0  0  0
 248 745   0   5 129   7 12  0
 249 319   7   0   0   1  0  0
 250 100   0   2 130   4  0 63
 251  81   0   0   0   0  0  0
 252 745   0   5 131   7  7  0
 253 319  11   0   0   1  0  0
 254 100   0   2 132   4  0 64
 255  81   0   0   0   0  0  0
 256 745   0   5 133   7 11  0
 257 319   8   0   0   1  0  0
 258 100   0   2 134   4  0 65
 259  81   0   0   0   0  0  0
 260 745   0   5 135   7  8  0
 261 319  10   0   0   1  0  0
 262 100   0   2 136   4  0 66
 263  81   0   0   0   0  0  0
 264 745   0   5 137   7 10  0
 265 319   9   0   0   1  0  0
 266 100   0   2 138   4  0 67
 267  81   0   0   0   0  0  0
 268 745   0   5 139   7  9  0
 269 319   3   0   0   1  0  0
 270 100   0   2 140   4  0 68
 271  81   0   0   0   0  0  0
 272 745   0   5 141   7  3  0
 273 319   5   0   0   1  0  0
 274 100   0   2 142   4  0 69
 275  81   0   0   0   0  0  0
 276 745   0   5 143   7  5  0
 277 319   8   0   0   1  0  0
 278 100   0   2 144   4  0 70
 279  81   0   0   0   0  0  0
 280 745   0   5 145   7  8  0
 281 319   7   0   0   1  0  0
 282 100   0   2 146   4  0 71
 283  81   0   0   0   0  0  0
 284 745   0   5 147   7  7  0
 285 319   6   0   0   1  0  0
 286 100   0   2 148   4  0 72
 287  81   0   0   0   0  0  0
 288 745   0   5 149   7  6  0
 289 319   1   0   0   1  0  0
 290 100   0   2 150   4  0 73
 291  81   0   0   0   0  0  0
 292 745   0   5 151   7  1  0
 293 319   5   0   0   1  0  0
 294 100   0   2 152   4  0 74
 295  81   0   0   0   0  0  0
 296 745   0   5 153   7  5  0
 297 319   4   0   0   1  0  0
 298 100   0   2 154   4  0 75
 299  81   0   0   0   0  0  0
 300 745   0   5 155   7  4  0
 301 319   3   0   0   1  0  0
 302 100   0   2 156   4  0 76
 303  81   0   0   0   0  0  0
 304 745   0   5 157   7  3  0
 305 319   2   0   0   1  0  0
 306 100   0   2 158   4  0 77
 307  81   0   0   0   0  0  0
 308 745   0   5 159   7  2  0
 309 319   1   0   0   1  0  0
 310 100   0   2 160   4  0 78
[RF]
1      37.2185 1 2 0 100 0 1.88496
2      37.2185 1 2 0 100 0 3.76991
3      37.2185 1 2 0 100 0 3.45575
4      37.2185 1 2 0 100 0 0.942478
5      37.2185 1 2 0 100 0 2.51327
6      37.2185 1 2 0 100 0 5.34071
7      37.2185 1 2 0 100 0 0.314159
8      37.2185 1 2 0 100 0 5.65487
9      37.2185 1 2 0 100 0 2.19911
10      37.2185 1 2 0 100 0 5.02655
11      37.2185 1 2 0 100 0 4.08407
12      37.2185 1 2 0 100 0 0.628319

# Format of arbitrary gradients:
#   time_shape_id of 0 means default timing (stepping with grad_raster starting at 1/2 of grad_raster)
# id amplitude amp_shape_id time_shape_id delay
# ..      Hz/m       ..         ..          us
[GRADIENTS]
5       936487 3 4 0

# Format of trapezoid gradients:
# id amplitude rise flat fall delay
# ..      Hz/m   us   us   us    us
[TRAP]
 1       444444  90 3000  90  10
 2      -574840 120  760 120   0
 3      -561798 110  780 110   0
 4      -827309 170  660 170   0
 6       561798 110  780 110 5160
 7       932401 190 1240 190 5160
 8      -557409 110  780 110   0
 9       557409 110  780 110 5160
10      -553020 110  780 110   0
11       553020 110  780 110 5160
12      -548631 110  780 110   0
13       548631 110  780 110 5160
14      -544242 110  780 110   0
15       544242 110  780 110 5160
16      -539853 110  780 110   0
17       539853 110  780 110 5160
18      -535463 110  780 110   0
19       535463 110  780 110 5160
20      -531074 110  780 110   0
21       531074 110  780 110 5160
22      -526685 110  780 110   0
23       526685 110  780 110 5160
24      -522296 110  780 110   0
25       522296 110  780 110 5160
26      -517907 110  780 110   0
27       517907 110  780 110 5160
28      -513518 110  780 110   0
29       513518 110  780 110 5160
30      -509129 110  780 110   0
31       509129 110  780 110 5160
32      -504740 110  780 110   0
33       504740 110  780 110 5160
34      -500351 110  780 110   0
35       500351 110  780 110 5160
36      -495962 110  780 110   0
37       495962 110  780 110 5160
38      -491573 110  780 110   0
39       491573 110  780 110 5160
40      -487184 110  780 110   0
41       487184 110  780 110 5160
42      -482795 110  780 110   0
43       482795 110  780 110 5160
44      -478406 110  780 110   0
45       478406 110  780 110 5160
46      -474017 110  780 110   0
47       474017 110  780 110 5160
48      -469628 110  780 110   0
49       469628 110  780 110 5160
50      -465239 110  780 110   0
51       465239 110  780 110 5160
52      -460850 110  780 110   0
53       460850 110  780 110 5160
54      -456461 110  780 110   0
55       456461 110  780 110 5160
56      -452072 110  780 110   0
57       452072 110  780 110 5160
58      -447683 110  780 110   0
59       447683 110  780 110 5160
60      -443294 110  780 110   0
61       443294 110  780 110 5160
62      -438904 110  780 110   0
63       438904 110  780 110 5160
64      -434515 110  780 110   0
65       434515 110  780 110 5160
66      -430126 110  780 110   0
67       430126 110  780 110 5160
68      -425737 110  780 110   0
69       425737 110  780 110 5160
70      -421348 110  780 110   0
71       421348 110  780 110 5160
72      -416959 110  780 110   0
73       416959 110  780 110 5160
74      -412570 110  780 110   0
75       412570 110  780 110 5160
76      -408181 110  780 110   0
77       408181 110  780 110 5160
78      -403792 110  780 110   0
79       403792 110  780 110 5160
80      -399403 110  780 110   0
81       399403 110  780 110 5160
82      -395014 110  780 110   0
83       395014 110  780 110 5160
84      -390625 110  780 110   0
85       390625 110  780 110 5160
86      -386236 110  780 110   0
87       386236 110  780 110 5160
88      -381847 110  780 110   0
89       381847 110  780 110 5160
90      -377458 110  780 110   0
91       377458 110  780 110 5160
92      -373069 110  780 110   0
93       373069 110  780 110 5160
94      -368680 110  780 110   0
95       368680 110  780 110 5160
96      -364291 110  780 110   0
97       364291 110  780 110 5160
98      -359902 110  780 110   0
99       359902 110  780 110 5160
100      -355513 110  780 110   0
101       355513 110  780 110 5160
102      -351124 110  780 110   0
103       351124 110  780 110 5160
104      -346735 110  780 110   0
105       346735 110  780 110 5160
106      -342346 110  780 110   0
107       342346 110  780 110 5160
108      -337956 110  780 110   0
109       337956 110  780 110 5160
110      -333567 110  780 110   0
111       333567 110  780 110 5160
112      -329178 110  780 110   0
113       329178 110  780 110 5160
114      -324789 110  780 110   0
115       324789 110  780 110 5160
116      -320400 110  780 110   0
117       320400 110  780 110 5160
118      -316011 110  780 110   0
119       316011 110  780 110 5160
120      -311622 110  780 110   0
121       311622 110  780 110 5160
122      -307233 110  780 110   0
123       307233 110  780 110 5160
124      -302844 110  780 110   0
125       302844 110  780 110 5160
126      -298455 110  780 110   0
127       298455 110  780 110 5160
128      -294066 110  780 110   0
129       294066 110  780 110 5160
130      -289677 110  780 110   0
131       289677 110  780 110 5160
132      -285288 110  780 110   0
133       285288 110  780 110 5160
134      -280899 110  780 110   0
135       280899 110  780 110 5160
136      -276510 110  780 110   0
137       276510 110  780 110 5160
138      -272121 110  780 110   0
139       272121 110  780 110 5160
140      -267732 110  780 110   0
141       267732 110  780 110 5160
142      -263343 110  780 110   0
143       263343 110  780 110 5160
144      -258954 110  780 110   0
145       258954 110  780 110 5160
146      -254565 110  780 110   0
147       254565 110  780 110 5160
148      -250176 110  780 110   0
149       250176 110  780 110 5160
150      -245787 110  780 110   0
151       245787 110  780 110 5160
152      -241397 110  780 110   0
153       241397 110  780 110 5160
154      -237008 110  780 110   0
155       237008 110  780 110 5160
156      -232619 110  780 110   0
157       232619 110  780 110 5160
158      -228230 110  780 110   0
159       228230 110  780 110 5160
160      -223841 110  780 110   0
161       223841 110  780 110 5160
162      -219452 110  780 110   0
163       219452 110  780 110 5160
164      -215063 110  780 110   0
165       215063 110  780 110 5160
166      -210674 110  780 110   0
167       210674 110  780 110 5160
168      -206285 110  780 110   0
169       206285 110  780 110 5160
170      -201896 110  780 110   0
171       201896 110  780 110 5160
172      -197507 110  780 110   0
173       197507 110  780 110 5160
174      -193118 110  780 110   0
175       193118 110  780 110 5160
176      -188729 110  780 110   0
177       188729 110  780 110 5160
178      -184340 110  780 110   0
179       184340 110  780 110 5160
180      -179951 110  780 110   0
181       179951 110  780 110 5160
182      -175562 110  780 110   0
183       175562 110  780 110 5160
184      -171173 110  780 110   0
185       171173 110  780 110 5160
186      -166784 110  780 110   0
187       166784 110  780 110 5160
188      -162395 110  780 110   0
189       162395 110  780 110 5160
190      -158006 110  780 110   0
191       158006 110  780 110 5160
192      -153617 110  780 110   0
193       153617 110  780 110 5160
194      -149228 110  780 110   0
195       149228 110  780 110 5160
196      -144838 110  780 110   0
197       144838 110  780 110 5160
198      -140449 110  780 110   0
199       140449 110  780 110 5160
200      -136060 110  780 110   0
201       136060 110  780 110 5160
202      -131671 110  780 110   0
203       131671 110  780 110 5160
204      -127282 110  780 110   0
205       127282 110  780 110 5160
206      -122893 110  780 110   0
207       122893 110  780 110 5160
208      -118504 110  780 110   0
209       118504 110  780 110 5160
210      -114115 110  780 110   0
211       114115 110  780 110 5160
212      -109726 110  780 110   0
213       109726 110  780 110 5160
214      -105337 110  780 110   0
215       105337 110  780 110 5160
216      -100948 110  780 110   0
217       100948 110  780 110 5160
218       -96559 110  780 110   0
219        96559 110  780 110 5160
220     -92169.9 110  780 110   0
221      92169.9 110  780 110 5160
222     -87780.9 110  780 110   0
223      87780.9 110  780 110 5160
224     -83391.9 110  780 110   0
225      83391.9 110  780 110 5160
226     -79002.8 110  780 110   0
227      79002.8 110  780 110 5160
228     -74613.8 110  780 110   0
229      74613.8 110  780 110 5160
230     -70224.7 110  780 110   0
231      70224.7 110  780 110 5160
232     -65835.7 110  780 110   0
233      65835.7 110  780 110 5160
234     -61446.6 110  780 110   0
235      61446.6 110  780 110 5160
236     -57057.6 110  780 110   0
237      57057.6 110  780 110 5160
238     -52668.5 110  780 110   0
239      52668.5 110  780 110 5160
240     -48279.5 110  780 110   0
241      48279.5 110  780 110 5160
242     -43890.4 110  780 110   0
243      43890.4 110  780 110 5160
244     -39501.4 110  780 110   0
245      39501.4 110  780 110 5160
246     -35112.4 110  780 110   0
247      35112.4 110  780 110 5160
248     -30723.3 110  780 110   0
249      30723.3 110  780 110 5160
250     -26334.3 110  780 110   0
251      26334.3 110  780 110 5160
252     -21945.2 110  780 110   0
253      21945.2 110  780 110 5160
254     -17556.2 110  780 110   0
255      17556.2 110  780 110 5160
256     -13167.1 110  780 110   0
257      13167.1 110  780 110 5160
258     -8778.09 110  780 110   0
259      8778.09 110  780 110 5160
260     -4389.04 110  780 110   0
261      4389.04 110  780 110 5160
262            0 110  780 110   0
263           -0 110  780 110 5160
264      4389.04 110  780 110   0
265     -4389.04 110  780 110 5160
266      8778.09 110  780 110   0
267     -8778.09 110  780 110 5160
268      13167.1 110  780 110   0
269     -13167.1 110  780 110 5160
270      17556.2 110  780 110   0
271     -17556.2 110  780 110 5160
272      21945.2 110  780 110   0
273     -21945.2 110  780 110 5160
274      26334.3 110  780 110   0
275     -26334.3 110  780 110 5160
276      30723.3 110  780 110   0
277     -30723.3 110  780 110 5160
278      35112.4 110  780 110   0
279     -35112.4 110  780 110 5160
280      39501.4 110  780 110   0
281     -39501.4 110  780 110 5160
282      43890.4 110  780 110   0
283     -43890.4 110  780 110 5160
284      48279.5 110  780 110   0
285     -48279.5 110  780 110 5160
286      52668.5 110  780 110   0
287     -52668.5 110  780 110 5160
288      57057.6 110  780 110   0
289     -57057.6 110  780 110 5160
290      61446.6 110  780 110   0
291     -61446.6 110  780 110 5160
292      65835.7 110  780 110   0
293     -65835.7 110  780 110 5160
294      70224.7 110  780 110   0
295     -70224.7 110  780 110 5160
296      74613.8 110  780 110   0
297     -74613.8 110  780 110 5160
298      79002.8 110  780 110   0
299     -79002.8 110  780 110 5160
300      83391.9 110  780 110   0
301     -83391.9 110  780 110 5160
302      87780.9 110  780 110   0
303     -87780.9 110  780 110 5160
304      92169.9 110  780 110   0
305     -92169.9 110  780 110 5160
306        96559 110  780 110   0
307       -96559 110  780 110 5160
308       100948 110  780 110   0
309      -100948 110  780 110 5160
310       105337 110  780 110   0
311      -105337 110  780 110 5160
312       109726 110  780 110   0
313      -109726 110  780 110 5160
314       114115 110  780 110   0
315      -114115 110  780 110 5160
316       118504 110  780 110   0
317      -118504 110  780 110 5160
318       122893 110  780 110   0
319      -122893 110  780 110 5160
320       127282 110  780 110   0
321      -127282 110  780 110 5160
322       131671 110  780 110   0
323      -131671 110  780 110 5160
324       136060 110  780 110   0
325      -136060 110  780 110 5160
326       140449 110  780 110   0
327      -140449 110  780 110 5160
328       144838 110  780 110   0
329      -144838 110  780 110 5160
330       149228 110  780 110   0
331      -149228 110  780 110 5160
332       153617 110  780 110   0
333      -153617 110  780 110 5160
334       158006 110  780 110   0
335      -158006 110  780 110 5160
336       162395 110  780 110   0
337      -162395 110  780 110 5160
338       166784 110  780 110   0
339      -166784 110  780 110 5160
340       171173 110  780 110   0
341      -171173 110  780 110 5160
342       175562 110  780 110   0
343      -175562 110  780 110 5160
344       179951 110  780 110   0
345      -179951 110  780 110 5160
346       184340 110  780 110   0
347      -184340 110  780 110 5160
348       188729 110  780 110   0
349      -188729 110  780 110 5160
350       193118 110  780 110   0
351      -193118 110  780 110 5160
352       197507 110  780 110   0
353      -197507 110  780 110 5160
354       201896 110  780 110   0
355      -201896 110  780 110 5160
356       206285 110  780 110   0
357      -206285 110  780 110 5160
358       210674 110  780 110   0
359      -210674 110  780 110 5160
360       215063 110  780 110   0
361      -215063 110  780 110 5160
362       219452 110  780 110   0
363      -219452 110  780 110 5160
364       223841 110  780 110   0
365      -223841 110  780 110 5160
366       228230 110  780 110   0
367      -228230 110  780 110 5160
368       232619 110  780 110   0
369      -232619 110  780 110 5160
370       237008 110  780 110   0
371      -237008 110  780 110 5160
372       241397 110  780 110   0
373      -241397 110  780 110 5160
374       245787 110  780 110   0
375      -245787 110  780 110 5160
376       250176 110  780 110   0
377      -250176 110  780 110 5160
378       254565 110  780 110   0
379      -254565 110  780 110 5160
380       258954 110  780 110   0
381      -258954 110  780 110 5160
382       263343 110  780 110   0
383      -263343 110  780 110 5160
384       267732 110  780 110   0
385      -267732 110  780 110 5160
386       272121 110  780 110   0
387      -272121 110  780 110 5160
388       276510 110  780 110   0
389      -276510 110  780 110 5160
390       280899 110  780 110   0
391      -280899 110  780 110 5160
392       285288 110  780 110   0
393      -285288 110  780 110 5160
394       289677 110  780 110   0
395      -289677 110  780 110 5160
396       294066 110  780 110   0
397      -294066 110  780 110 5160
398       298455 110  780 110   0
399      -298455 110  780 110 5160
400       302844 110  780 110   0
401      -302844 110  780 110 5160
402       307233 110  780 110   0
403      -307233 110  780 110 5160
404       311622 110  780 110   0
405      -311622 110  780 110 5160
406       316011 110  780 110   0
407      -316011 110  780 110 5160
408       320400 110  780 110   0
409      -320400 110  780 110 5160
410       324789 110  780 110   0
411      -324789 110  780 110 5160
412       329178 110  780 110   0
413      -329178 110  780 110 5160
414       333567 110  780 110   0
415      -333567 110  780 110 5160
416       337956 110  780 110   0
417      -337956 110  780 110 5160
418       342346 110  780 110   0
419      -342346 110  780 110 5160
420       346735 110  780 110   0
421      -346735 110  780 110 5160
422       351124 110  780 110   0
423      -351124 110  780 110 5160
424       355513 110  780 110   0
425      -355513 110  780 110 5160
426       359902 110  780 110   0
427      -359902 110  780 110 5160
428       364291 110  780 110   0
429      -364291 110  780 110 5160
430       368680 110  780 110   0
431      -368680 110  780 110 5160
432       373069 110  780 110   0
433      -373069 110  780 110 5160
434       377458 110  780 110   0
435      -377458 110  780 110 5160
436       381847 110  780 110   0
437      -381847 110  780 110 5160
438       386236 110  780 110   0
439      -386236 110  780 110 5160
440       390625 110  780 110   0
441      -390625 110  780 110 5160
442       395014 110  780 110   0
443      -395014 110  780 110 5160
444       399403 110  780 110   0
445      -399403 110  780 110 5160
446       403792 110  780 110   0
447      -403792 110  780 110 5160
448       408181 110  780 110   0
449      -408181 110  780 110 5160
450       412570 110  780 110   0
451      -412570 110  780 110 5160
452       416959 110  780 110   0
453      -416959 110  780 110 5160
454       421348 110  780 110   0
455      -421348 110  780 110 5160
456       425737 110  780 110   0
457      -425737 110  780 110 5160
458       430126 110  780 110   0
459      -430126 110  780 110 5160
460       434515 110  780 110   0
461      -434515 110  780 110 5160
462       438904 110  780 110   0
463      -438904 110  780 110 5160
464       443294 110  780 110   0
465      -443294 110  780 110 5160
466       447683 110  780 110   0
467      -447683 110  780 110 5160
468       452072 110  780 110   0
469      -452072 110  780 110 5160
470       456461 110  780 110   0
471      -456461 110  780 110 5160
472       460850 110  780 110   0
473      -460850 110  780 110 5160
474       465239 110  780 110   0
475      -465239 110  780 110 5160
476       469628 110  780 110   0
477      -469628 110  780 110 5160
478       474017 110  780 110   0
479      -474017 110  780 110 5160
480       478406 110  780 110   0
481      -478406 110  780 110 5160
482       482795 110  780 110   0
483      -482795 110  780 110 5160
484       487184 110  780 110   0
485      -487184 110  780 110 5160
486       491573 110  780 110   0
487      -491573 110  780 110 5160
488       495962 110  780 110   0
489      -495962 110  780 110 5160
490       500351 110  780 110   0
491      -500351 110  780 110 5160
492       504740 110  780 110   0
493      -504740 110  780 110 5160
494       509129 110  780 110   0
495      -509129 110  780 110 5160
496       513518 110  780 110   0
497      -513518 110  780 110 5160
498       517907 110  780 110   0
499      -517907 110  780 110 5160
500       522296 110  780 110   0
501      -522296 110  780 110 5160
502       526685 110  780 110   0
503      -526685 110  780 110 5160
504       531074 110  780 110   0
505      -531074 110  780 110 5160
506       535463 110  780 110   0
507      -535463 110  780 110 5160
508       539853 110  780 110   0
509      -539853 110  780 110 5160
510       544242 110  780 110   0
511      -544242 110  780 110 5160
512       548631 110  780 110   0
513      -548631 110  780 110 5160
514       553020 110  780 110   0
515      -553020 110  780 110 5160
516       557409 110  780 110   0
517      -557409 110  780 110 5160

# Format of ADC events:
# id num dwell delay freq phase
# ..  ..    ns    us   Hz   rad
[ADC]
1 256 20000 40 0 1.88496
2 256 20000 40 0 3.76991
3 256 20000 40 0 3.45575
4 256 20000 40 0 0.942478
5 256 20000 40 0 2.51327
6 256 20000 40 0 5.34071
7 256 20000 40 0 0.314159
8 256 20000 40 0 5.65487
9 256 20000 40 0 2.19911
10 256 20000 40 0 5.02655
11 256 20000 40 0 4.08407
12 256 20000 40 0 0.628319

# Format of extension lists:
# id type ref next_id
# next_id of 0 terminates the list
# Extension list is followed by extension specifications
[EXTENSIONS]
1 1 1 0
2 1 2 0
3 1 3 0
4 1 4 0
5 1 5 0
6 1 6 0
7 1 7 0
8 1 8 0
9 1 9 0
10 1 10 0
11 1 11 0
12 1 12 0
13 1 13 0
14 1 14 0
15 1 15 0
16 1 16 0
17 1 17 0
18 1 18 0
19 1 19 0
20 1 20 0
21 1 21 0
22 1 22 0
23 1 23 0
24 1 24 0
25 1 25 0
26 1 26 0
27 1 27 0
28 1 28 0
29 1 29 0
30 1 30 0
31 1 31 0
32 1 32 0
33 1 33 0
34 1 34 0
35 1 35 0
36 1 36 0
37 1 37 0
38 1 38 0
39 1 39 0
40 1 40 0
41 1 41 0
42 1 42 0
43 1 43 0
44 1 44 0
45 1 45 0
46 1 46 0
47 1 47 0
48 1 48 0
49 1 49 0
50 1 50 0
51 1 51 0
52 1 52 0
53 1 53 0
54 1 54 0
55 1 55 0
56 1 56 0
57 1 57 0
58 1 58 0
59 1 59 0
60 1 60 0
61 1 61 0
62 1 62 0
63 1 63 0
64 1 64 0
65 1 65 0
66 1 66 0
67 1 67 0
68 1 68 0
69 1 69 0
70 1 70 0
71 1 71 0
72 1 72 0
73 1 73 0
74 1 74 0
75 1 75 0
76 1 76 0
77 1 77 0
78 1 78 0
79 1 79 0
80 1 80 0
81 1 81 0
82 1 82 0
83 1 83 0
84 1 84 0
85 1 85 0
86 1 86 0
87 1 87 0
88 1 88 0
89 1 89 0
90 1 90 0
91 1 91 0
92 1 92 0
93 1 93 0
94 1 94 0
